NMMB/CMAQ+GDAS+RAQMS True Full State Vector Data
Data_Size = 75 x 9
surfaceTemperature = 288.15
ZSUR = 5.0000
latitude = 39.4101
longitude = -76.297
YYYYMMDD = 20110730
UTCSEC = 64567.0
End_of_Header  ****  End_of_Header  ****  End_of_Header  ****  End_of_Header
Level Pressure     TATM       H2O        O3         NO2        HCHO       SO2        CO
-     hPa          K          VMR        VMR        VMR        VMR        VMR        VMR
  1    540.8800049 2.5571E+02 9.3556E-04 8.6809E-08 2.1890E-12 1.0361E-10 1.0086E-11 6.6933E-08
  2    523.9534912 2.5418E+02 1.0037E-03 8.5926E-08 2.0868E-12 1.0437E-10 1.0714E-11 6.6969E-08
  3    507.0269775 2.5261E+02 1.0830E-03 8.4903E-08 1.9868E-12 1.0552E-10 1.1392E-11 6.7018E-08
  4    490.5828857 2.5102E+02 1.4519E-03 8.3112E-08 1.8502E-12 1.0452E-10 9.7480E-12 6.6482E-08
  5    474.1387634 2.4939E+02 1.8209E-03 8.1320E-08 1.7135E-12 1.0353E-10 8.1039E-12 6.5945E-08
  6    457.8257446 2.4774E+02 2.0297E-03 7.6306E-08 1.8301E-12 1.1031E-10 7.0858E-12 6.6677E-08
  7    441.5126953 2.4605E+02 2.2385E-03 7.1291E-08 1.9468E-12 1.1709E-10 6.0676E-12 6.7409E-08
  8    425.4265747 2.4431E+02 1.9450E-03 6.2356E-08 2.3146E-12 1.2088E-10 8.8083E-12 7.0047E-08
  9    409.3404541 2.4251E+02 1.6516E-03 5.3422E-08 2.6825E-12 1.2467E-10 1.1549E-11 7.2686E-08
 10    393.5317383 2.4072E+02 1.6887E-03 4.7959E-08 3.3719E-12 1.2911E-10 1.2094E-11 7.5227E-08
 11    377.7230225 2.3885E+02 1.7259E-03 4.2497E-08 4.0613E-12 1.3355E-10 1.2639E-11 7.7768E-08
 12    362.2420044 2.3694E+02 1.6409E-03 4.2089E-08 4.6269E-12 1.3241E-10 1.0651E-11 7.9470E-08
 13    346.7610168 2.3499E+02 1.5560E-03 4.1681E-08 5.1924E-12 1.3126E-10 8.6628E-12 8.1171E-08
 14    331.8095093 2.3303E+02 1.3057E-03 4.0440E-08 6.1547E-12 1.3966E-10 7.9081E-12 8.4529E-08
 15    316.8580017 2.3099E+02 1.0555E-03 3.9198E-08 7.1171E-12 1.4806E-10 7.1535E-12 8.7887E-08
 16    302.7385254 2.2899E+02 8.6030E-04 3.8169E-08 8.8005E-12 1.6212E-10 7.3921E-12 9.1120E-08
 17    288.6190491 2.2693E+02 6.6509E-04 3.7140E-08 1.0484E-11 1.7619E-10 7.6308E-12 9.4353E-08
 18    275.5585327 2.2494E+02 5.9508E-04 3.9827E-08 1.3024E-11 1.8104E-10 6.0752E-12 9.5743E-08
 19    262.4980469 2.2285E+02 5.2507E-04 4.2514E-08 1.5563E-11 1.8589E-10 4.5197E-12 9.7132E-08
 20    250.6477966 2.2092E+02 4.1339E-04 4.8460E-08 1.7682E-11 1.8669E-10 4.3503E-12 9.6924E-08
 21    238.7975464 2.1889E+02 3.0171E-04 5.4406E-08 1.9801E-11 1.8749E-10 4.1809E-12 9.6715E-08
 22    228.1322784 2.1698E+02 2.2735E-04 5.6846E-08 2.1859E-11 1.9821E-10 4.2134E-12 9.6770E-08
 23    217.4670105 2.1665E+02 1.5299E-04 5.9285E-08 2.3917E-11 2.0894E-10 4.2459E-12 9.6825E-08
 24    207.8355103 2.1665E+02 1.1216E-04 5.8465E-08 2.5111E-11 2.0781E-10 4.8343E-12 9.5150E-08
 25    198.2040253 2.1665E+02 7.1331E-05 5.7644E-08 2.6305E-11 2.0668E-10 5.4226E-12 9.3476E-08
 26    189.5558929 2.1665E+02 5.1859E-05 6.2813E-08 2.6715E-11 1.9404E-10 4.2150E-12 9.2094E-08
 27    180.9077606 2.1665E+02 3.2387E-05 6.7983E-08 2.7125E-11 1.8139E-10 3.0074E-12 9.0713E-08
 28    173.0664063 2.1665E+02 2.3153E-05 8.6526E-08 2.6905E-11 1.5199E-10 2.5380E-12 8.6573E-08
 29    165.2250366 2.1665E+02 1.3918E-05 1.0507E-07 2.6684E-11 1.2258E-10 2.0686E-12 8.2433E-08
 30    157.9635925 2.1665E+02 1.2594E-05 1.2291E-07 2.8131E-11 9.8821E-11 2.0067E-12 7.9485E-08
 31    150.7021637 2.1665E+02 1.1271E-05 1.4075E-07 2.9577E-11 7.5062E-11 1.9448E-12 7.6537E-08
 32    143.8189392 2.1665E+02 9.9851E-06 1.5544E-07 3.0781E-11 6.7731E-11 1.9834E-12 7.5245E-08
 33    136.9356995 2.1665E+02 8.6991E-06 1.7013E-07 3.1985E-11 6.0400E-11 2.0221E-12 7.3952E-08
 34    130.3298187 2.1665E+02 8.0542E-06 2.0756E-07 3.2791E-11 5.5955E-11 1.9368E-12 7.1062E-08
 35    123.7239380 2.1665E+02 7.4093E-06 2.4500E-07 3.3598E-11 5.1510E-11 1.8515E-12 6.8172E-08
 36    117.3701477 2.1665E+02 7.3069E-06 2.9882E-07 3.6154E-11 4.4327E-11 1.5950E-12 6.3154E-08
 37    111.0163574 2.1665E+02 7.2045E-06 3.5264E-07 3.8711E-11 3.7143E-11 1.3384E-12 5.8136E-08
 38    104.8391113 2.1665E+02 6.1475E-06 4.0359E-07 4.4605E-11 2.9972E-11 1.1205E-12 5.3480E-08
 39     98.6618729 2.1665E+02 5.0906E-06 4.5453E-07 5.0499E-11 2.2802E-11 9.0258E-13 4.8825E-08
 40     92.6610718 2.1665E+02 3.9313E-06 5.6279E-07 5.8286E-11 1.9563E-11 7.1761E-13 4.4911E-08
 41     86.6602631 2.1665E+02 2.7720E-06 6.7106E-07 6.6074E-11 1.6323E-11 5.3264E-13 4.0997E-08
 42     80.8107910 2.1665E+02 2.5279E-06 8.1376E-07 7.6718E-11 1.5292E-11 4.2446E-13 3.7055E-08
 43     74.9613266 2.1665E+02 2.2839E-06 9.5645E-07 8.7362E-11 1.4261E-11 3.1629E-13 3.3113E-08
 44     69.2126617 2.1665E+02 2.3688E-06 1.1258E-06 1.0622E-10 1.4720E-11 2.4958E-13 3.0170E-08
 45     63.4640045 2.1665E+02 2.4537E-06 1.2951E-06 1.2508E-10 1.5179E-11 1.8287E-13 2.7227E-08
 46     57.8036194 2.1665E+02 3.3460E-06 1.6331E-06 1.5864E-10 1.6251E-11 1.0913E-13 2.4118E-08
 47     52.1432343 2.1696E+02 4.2382E-06 1.9711E-06 1.9221E-10 1.7323E-11 3.5393E-14 2.1008E-08
 48     50.1888733 2.1720E+02 3.2471E-06 2.0961E-06 2.1513E-10 1.8249E-11 2.0809E-14 2.0189E-08
 49     48.2345123 2.1746E+02 2.2560E-06 2.2212E-06 2.3805E-10 1.9176E-11 6.2252E-15 1.9370E-08
 50     45.0256958 2.1789E+02 1.9536E-06 2.5365E-06 2.7215E-10 2.0795E-11 5.1249E-15 1.8879E-08
 51     41.8168831 2.1837E+02 1.6513E-06 2.8517E-06 3.0624E-10 2.2413E-11 4.0247E-15 1.8388E-08
 52     38.9830856 2.1881E+02 1.5501E-06 3.2376E-06 3.8362E-10 2.4514E-11 3.2157E-15 1.8183E-08
 53     36.1492844 2.1930E+02 1.4488E-06 3.6236E-06 4.6101E-10 2.6615E-11 2.4067E-15 1.7978E-08
 54     33.6503983 2.1976E+02 1.5346E-06 4.0186E-06 5.8982E-10 2.9329E-11 1.9017E-15 1.8090E-08
 55     31.1515160 2.2026E+02 1.6203E-06 4.4136E-06 7.1862E-10 3.2042E-11 1.3967E-15 1.8202E-08
 56     28.9508629 2.2073E+02 1.7660E-06 4.8121E-06 8.3205E-10 3.4432E-11 9.5196E-16 1.8301E-08
 57     26.7502117 2.2124E+02 1.9116E-06 5.2106E-06 9.4548E-10 3.6821E-11 5.0722E-16 1.8399E-08
 58     24.8144417 2.2173E+02 1.9437E-06 5.5561E-06 1.1885E-09 4.0182E-11 3.7374E-16 1.8555E-08
 59     22.8786736 2.2226E+02 1.9758E-06 5.9016E-06 1.4315E-09 4.3543E-11 2.4027E-16 1.8711E-08
 60     21.1776352 2.2276E+02 1.9230E-06 6.2188E-06 1.6761E-09 4.6770E-11 1.7893E-16 1.8863E-08
 61     19.4765949 2.2330E+02 1.8701E-06 6.5359E-06 1.9207E-09 4.9997E-11 1.1758E-16 1.9015E-08
 62     17.9831581 2.2383E+02 1.8195E-06 6.9022E-06 2.1646E-09 5.2452E-11 7.6033E-17 1.9063E-08
 63     16.4897194 2.2440E+02 1.7688E-06 7.2685E-06 2.4085E-09 5.4907E-11 3.4485E-17 1.9111E-08
 64     15.1795750 2.2494E+02 1.7500E-06 7.5763E-06 2.6898E-09 5.6187E-11 2.6546E-17 1.8956E-08
 65     13.8694305 2.2554E+02 1.7313E-06 7.8841E-06 2.9711E-09 5.7467E-11 1.8607E-17 1.8800E-08
 66     11.5723000 2.2673E+02 1.7159E-06 8.3360E-06 3.4644E-09 5.9711E-11 4.6869E-18 1.8527E-08
 67      9.5596762 2.2801E+02 1.6381E-06 8.5870E-06 3.5397E-09 5.5602E-11 2.0196E-18 1.6283E-08
 68      7.7972245 2.3067E+02 1.5163E-06 8.7036E-06 3.5655E-09 5.1318E-11 7.5992E-19 1.4090E-08
 69      6.2545238 2.3488E+02 1.4239E-06 8.6784E-06 3.1254E-09 4.5235E-11 2.3161E-19 1.1706E-08
 70      4.9046464 2.3960E+02 1.4169E-06 8.3707E-06 2.4969E-09 3.8683E-11 7.1651E-20 9.3746E-09
 71      3.7237844 2.4507E+02 1.6433E-06 7.4844E-06 1.8797E-09 4.3642E-11 4.6232E-20 9.2140E-09
 72      2.6908376 2.5169E+02 1.7826E-06 6.0979E-06 1.2278E-09 5.2220E-11 5.2953E-20 9.9869E-09
 73      1.7868934 2.6028E+02 1.7936E-06 4.4549E-06 5.7811E-10 5.5243E-11 5.6498E-20 1.0755E-08
 74      0.9938254 2.7065E+02 1.9588E-06 2.7852E-06 1.3156E-10 4.0572E-11 4.4614E-20 1.0512E-08
 75      0.2665921 2.5098E+02 1.7376E-06 1.1776E-06 1.9429E-16 2.4143E-11 5.6817E-20 1.1526E-08
