3087
3352.00 2.523e-47
3353.00 1.892e-47
3355.00 2.523e-47
3356.00 2.523e-47
3357.00 2.523e-47
3359.00 2.523e-47
3360.00 2.523e-47
3361.00 2.523e-47
3363.00 2.523e-47
3364.00 2.523e-47
3365.00 2.523e-47
3367.00 2.523e-47
3368.00 2.523e-47
3369.00 2.523e-47
3371.00 2.523e-47
3372.00 3.154e-47
3373.00 3.154e-47
3375.00 3.154e-47
3376.00 3.154e-47
3377.00 3.154e-47
3379.00 3.154e-47
3380.00 3.154e-47
3381.00 3.154e-47
3383.00 3.154e-47
3384.00 3.154e-47
3385.00 3.154e-47
3387.00 3.154e-47
3388.00 3.154e-47
3389.00 3.785e-47
3391.00 3.785e-47
3392.00 3.785e-47
3393.00 3.785e-47
3395.00 4.415e-47
3396.00 4.415e-47
3397.00 4.415e-47
3399.00 5.046e-47
3400.00 5.046e-47
3401.00 5.046e-47
3403.00 5.677e-47
3404.00 5.677e-47
3405.00 6.308e-47
3407.00 6.308e-47
3408.00 6.938e-47
3409.00 7.569e-47
3411.00 7.569e-47
3412.00 8.2e-47
3413.00 8.831e-47
3415.00 8.831e-47
3416.00 9.462e-47
3417.00 1.009e-46
3419.00 1.072e-46
3420.00 1.135e-46
3421.00 1.135e-46
3423.00 1.198e-46
3424.00 1.198e-46
3425.00 1.261e-46
3427.00 1.261e-46
3428.00 1.325e-46
3429.00 1.325e-46
3431.00 1.325e-46
3432.00 1.325e-46
3433.00 1.325e-46
3435.00 1.388e-46
3436.00 1.388e-46
3437.00 1.325e-46
3439.00 1.261e-46
3440.00 1.198e-46
3441.00 1.135e-46
3443.00 1.072e-46
3444.00 1.009e-46
3445.00 8.831e-47
3447.00 8.2e-47
3448.00 7.569e-47
3449.00 6.938e-47
3451.00 6.308e-47
3452.00 5.677e-47
3453.00 5.046e-47
3455.00 5.046e-47
3456.00 4.415e-47
3457.00 3.785e-47
3459.00 3.785e-47
3460.00 3.154e-47
3461.00 3.154e-47
3463.00 3.154e-47
3464.00 2.523e-47
3465.00 2.523e-47
3467.00 2.523e-47
3468.00 2.523e-47
3469.00 2.523e-47
3471.00 1.892e-47
3472.00 1.892e-47
3473.00 1.892e-47
3475.00 1.892e-47
3476.00 1.892e-47
3477.00 1.892e-47
3479.00 1.892e-47
3480.00 1.892e-47
3481.00 1.892e-47
3483.00 1.892e-47
3484.00 1.892e-47
3485.00 1.892e-47
3487.00 1.892e-47
3488.00 1.892e-47
3489.00 1.892e-47
3491.00 2.523e-47
3492.00 2.523e-47
3493.00 2.523e-47
3495.00 2.523e-47
3496.00 2.523e-47
3497.00 2.523e-47
3499.00 2.523e-47
3500.00 2.523e-47
3501.00 2.523e-47
3503.00 2.523e-47
3504.00 3.154e-47
3506.00 2.523e-47
3507.00 3.154e-47
3509.00 3.154e-47
3510.00 3.154e-47
3512.00 3.154e-47
3513.00 3.785e-47
3515.00 3.785e-47
3516.00 3.785e-47
3518.00 3.785e-47
3519.00 4.415e-47
3521.00 4.415e-47
3522.00 4.415e-47
3524.00 4.415e-47
3525.00 4.415e-47
3527.00 5.046e-47
3528.00 5.046e-47
3530.00 5.677e-47
3531.00 5.046e-47
3533.00 5.677e-47
3534.00 6.308e-47
3536.00 6.308e-47
3537.00 6.308e-47
3539.00 6.938e-47
3540.00 6.938e-47
3542.00 7.569e-47
3543.00 8.2e-47
3545.00 8.831e-47
3546.00 8.831e-47
3548.00 9.462e-47
3549.00 1.009e-46
3551.00 1.072e-46
3552.00 1.135e-46
3554.00 1.198e-46
3555.00 1.261e-46
3557.00 1.388e-46
3558.00 1.451e-46
3560.00 1.577e-46
3561.00 1.64e-46
3563.00 1.766e-46
3564.00 1.892e-46
3566.00 2.019e-46
3567.00 2.145e-46
3569.00 2.271e-46
3570.00 2.397e-46
3572.00 2.586e-46
3573.00 2.712e-46
3575.00 2.838e-46
3576.00 3.028e-46
3578.00 3.154e-46
3579.00 3.343e-46
3581.00 3.469e-46
3582.00 3.658e-46
3584.00 3.785e-46
3585.00 3.911e-46
3587.00 4.037e-46
3588.00 4.1e-46
3590.00 4.226e-46
3591.00 4.289e-46
3593.00 4.352e-46
3594.00 4.415e-46
3596.00 4.478e-46
3597.00 4.478e-46
3599.00 4.478e-46
3600.00 4.415e-46
3602.00 4.352e-46
3603.00 4.226e-46
3605.00 4.1e-46
3606.00 3.848e-46
3608.00 3.658e-46
3609.00 3.406e-46
3611.00 3.154e-46
3612.00 2.902e-46
3614.00 2.649e-46
3615.00 2.397e-46
3617.00 2.145e-46
3618.00 1.955e-46
3620.00 1.766e-46
3621.00 1.514e-46
3623.00 1.388e-46
3624.00 1.261e-46
3626.00 1.135e-46
3627.00 1.009e-46
3629.00 8.831e-47
3630.00 8.2e-47
3632.00 6.938e-47
3633.00 6.308e-47
3635.00 5.677e-47
3636.00 5.046e-47
3638.00 4.415e-47
3639.00 3.785e-47
3641.00 3.785e-47
3642.00 3.154e-47
3644.00 2.523e-47
3645.00 2.523e-47
3647.00 2.523e-47
3648.00 1.892e-47
3650.00 1.892e-47
3651.00 1.892e-47
3653.00 1.261e-47
3654.00 1.261e-47
3656.00 1.261e-47
3657.00 1.261e-47
3659.00 1.261e-47
3660.00 1.261e-47
3662.00 6.308e-48
3663.00 6.308e-48
3665.00 6.308e-48
3666.00 6.308e-48
3668.00 6.308e-48
3669.00 6.308e-48
3671.00 6.308e-48
3672.00 6.308e-48
3674.00 6.308e-48
3675.00 6.308e-48
3677.00 6.308e-48
3678.00 6.308e-48
3680.00 6.308e-48
3681.00 6.308e-48
3683.00 6.308e-48
3684.00 6.308e-48
3686.00 6.308e-48
3687.00 6.308e-48
3689.00 6.308e-48
3690.00 6.308e-48
3692.00 6.308e-48
3693.00 6.308e-48
3695.00 6.308e-48
3696.00 6.308e-48
3698.00 6.308e-48
3699.00 6.308e-48
3701.00 6.308e-48
3702.00 6.308e-48
3704.00 6.308e-48
3705.00 6.308e-48
3707.00 6.308e-48
3708.00 6.308e-48
3710.00 6.308e-48
3711.00 6.308e-48
3713.00 6.308e-48
3714.00 6.308e-48
3716.00 6.308e-48
3717.00 6.308e-48
3719.00 6.308e-48
3720.00 6.308e-48
3722.00 6.308e-48
3723.00 6.308e-48
3725.00 6.308e-48
3726.00 6.308e-48
3728.00 6.308e-48
3729.00 6.308e-48
3731.00 6.308e-48
3732.00 1.261e-47
3734.00 6.308e-48
3735.00 1.261e-47
3737.00 1.261e-47
3738.00 1.261e-47
3740.00 1.261e-47
3741.00 1.261e-47
3743.00 1.261e-47
3744.00 1.261e-47
3746.00 1.892e-47
3747.00 1.892e-47
3749.00 1.892e-47
3750.00 2.523e-47
3752.00 2.523e-47
3753.00 3.154e-47
3755.00 3.154e-47
3756.00 3.785e-47
3758.00 3.785e-47
3759.00 4.415e-47
3761.00 5.046e-47
3762.00 5.677e-47
3764.00 6.308e-47
3765.00 6.938e-47
3767.00 7.569e-47
3768.00 8.831e-47
3770.00 9.462e-47
3771.00 1.072e-46
3773.00 1.135e-46
3774.00 1.261e-46
3776.00 1.388e-46
3777.00 1.514e-46
3779.00 1.64e-46
3780.00 1.766e-46
3782.00 1.829e-46
3783.00 1.955e-46
3785.00 2.082e-46
3786.00 2.145e-46
3788.00 2.271e-46
3789.00 2.334e-46
3791.00 2.397e-46
3792.00 2.46e-46
3794.00 2.523e-46
3795.00 2.586e-46
3797.00 2.586e-46
3798.00 2.586e-46
3800.00 2.523e-46
3801.00 2.46e-46
3803.00 2.46e-46
3804.00 2.334e-46
3805.00 2.271e-46
3807.00 2.145e-46
3808.00 2.082e-46
3810.00 1.955e-46
3811.00 1.829e-46
3813.00 1.703e-46
3814.00 1.577e-46
3816.00 1.451e-46
3817.00 1.325e-46
3819.00 1.261e-46
3820.00 1.135e-46
3822.00 1.009e-46
3823.00 9.462e-47
3825.00 8.2e-47
3826.00 7.569e-47
3828.00 6.938e-47
3829.00 6.308e-47
3831.00 5.677e-47
3832.00 5.046e-47
3834.00 4.415e-47
3835.00 3.785e-47
3837.00 3.785e-47
3838.00 3.154e-47
3840.00 3.154e-47
3841.00 2.523e-47
3843.00 2.523e-47
3844.00 1.892e-47
3846.00 1.892e-47
3847.00 1.892e-47
3849.00 1.892e-47
3850.00 1.261e-47
3852.00 1.261e-47
3853.00 1.261e-47
3855.00 1.261e-47
3856.00 1.261e-47
3858.00 6.308e-48
3859.00 6.308e-48
3861.00 6.308e-48
3862.00 6.308e-48
3864.00 6.308e-48
3865.00 6.308e-48
3867.00 6.308e-48
3868.00 6.308e-48
3870.00 6.308e-48
3871.00 6.308e-48
3873.00 6.308e-48
3874.00 6.308e-48
3876.00 6.308e-48
3877.00 6.308e-48
3879.00 6.308e-48
3880.00 6.308e-48
3882.00 6.308e-48
3883.00 6.308e-48
3885.00 6.308e-48
3886.00 6.308e-48
3888.00 6.308e-48
3889.00 6.308e-48
3891.00 6.308e-48
3892.00 6.308e-48
3894.00 6.308e-48
3895.00 6.308e-48
3897.00 6.308e-48
3898.00 6.308e-48
3900.00 6.308e-48
3901.00 6.308e-48
3903.00 6.308e-48
3904.00 6.308e-48
3906.00 0
3907.00 6.308e-48
3909.00 0
3910.00 6.308e-48
3912.00 0
3913.00 0
3915.00 0
3916.00 0
3918.00 0
3919.00 0
3921.00 0
3922.00 0
3924.00 0
3925.00 0
3927.00 0
3928.00 0
3930.00 0
3931.00 0
3933.00 0
3934.00 0
3936.00 0
3937.00 0
3939.00 0
3940.00 0
3942.00 0
3943.00 0
3945.00 0
3946.00 0
3948.00 0
3949.00 0
3951.00 0
3952.00 0
3954.00 0
3955.00 0
3957.00 0
3958.00 0
3960.00 0
3961.00 0
3963.00 0
3964.00 0
3966.00 0
3967.00 0
3969.00 0
3970.00 0
3972.00 0
3973.00 0
3975.00 0
3976.00 0
3978.00 0
3979.00 0
3981.00 0
3982.00 0
3984.00 0
3985.00 0
3987.00 0
3988.00 0
3990.00 0
3991.00 0
3993.00 0
3994.00 0
3996.00 0
3997.00 0
3999.00 0
4000.00 6e-48
4002.00 6e-48
4003.00 6e-48
4005.00 6e-48
4006.00 6e-48
4008.00 6e-48
4009.00 6e-48
4011.00 6e-48
4012.00 6e-48
4014.00 6e-48
4015.00 0
4017.00 6e-48
4018.00 6e-48
4020.00 6e-48
4021.00 6e-48
4023.00 6e-48
4024.00 6e-48
4026.00 6e-48
4027.00 6e-48
4029.00 6e-48
4030.00 6e-48
4032.00 6e-48
4033.00 6e-48
4035.00 6e-48
4036.00 6e-48
4038.00 6e-48
4039.00 6e-48
4041.00 6e-48
4042.00 6e-48
4044.00 6e-48
4045.00 6e-48
4047.00 6e-48
4048.00 6e-48
4050.00 6e-48
4051.00 6e-48
4053.00 6e-48
4054.00 6e-48
4056.00 6e-48
4057.00 6e-48
4058.00 6e-48
4060.00 6e-48
4061.00 6e-48
4063.00 6e-48
4064.00 6e-48
4066.00 6e-48
4067.00 6e-48
4069.00 6e-48
4070.00 0
4072.00 0
4073.00 0
4075.00 0
4076.00 0
4078.00 0
4079.00 0
4081.00 0
4082.00 0
4084.00 0
4085.00 0
4086.00 0
4088.00 0
4089.00 0
4091.00 0
4092.00 0
4094.00 0
4095.00 0
4097.00 0
4098.00 0
4099.00 0
4101.00 0
4102.00 0
4104.00 0
4105.00 0
4107.00 0
4108.00 0
4110.00 0
4111.00 0
4113.00 0
4114.00 0
4115.00 0
4117.00 0
4118.00 0
4120.00 0
4121.00 0
4123.00 0
4124.00 0
4126.00 0
4127.00 0
4128.00 0
4130.00 0
4131.00 0
4133.00 0
4134.00 0
4136.00 0
4137.00 0
4139.00 0
4140.00 0
4141.00 0
4143.00 6e-48
4144.00 6e-48
4146.00 6e-48
4147.00 0
4149.00 0
4150.00 0
4152.00 6e-48
4153.00 6e-48
4154.00 6e-48
4156.00 6e-48
4157.00 6e-48
4159.00 6e-48
4160.00 6e-48
4162.00 6e-48
4163.00 6e-48
4165.00 6e-48
4166.00 6e-48
4167.00 6e-48
4169.00 6e-48
4170.00 6e-48
4172.00 6e-48
4173.00 6e-48
4175.00 6e-48
4176.00 6e-48
4178.00 6e-48
4179.00 6e-48
4180.00 6e-48
4182.00 6e-48
4183.00 6e-48
4185.00 6e-48
4186.00 6e-48
4188.00 6e-48
4189.00 6e-48
4191.00 6e-48
4192.00 6e-48
4194.00 6e-48
4195.00 6e-48
4196.00 6e-48
4198.00 6e-48
4199.00 6e-48
4201.00 6e-48
4202.00 6e-48
4204.00 6e-48
4205.00 6e-48
4207.00 6e-48
4208.00 6e-48
4209.00 6e-48
4211.00 6e-48
4212.00 6e-48
4214.00 6e-48
4215.00 6e-48
4217.00 6e-48
4218.00 6e-48
4220.00 6e-48
4221.00 6e-48
4222.00 6e-48
4224.00 6e-48
4225.00 6e-48
4227.00 6e-48
4228.00 6e-48
4230.00 6e-48
4231.00 6e-48
4233.00 6e-48
4234.00 6e-48
4235.00 6e-48
4237.00 6e-48
4238.00 6e-48
4240.00 6e-48
4241.00 6e-48
4243.00 6e-48
4244.00 6e-48
4246.00 6e-48
4247.00 6e-48
4248.00 6e-48
4250.00 6e-48
4251.00 6e-48
4253.00 6e-48
4254.00 6e-48
4256.00 6e-48
4257.00 6e-48
4259.00 6e-48
4260.00 6e-48
4261.00 6e-48
4263.00 6e-48
4264.00 6e-48
4266.00 6e-48
4267.00 6e-48
4269.00 6e-48
4270.00 6e-48
4272.00 6e-48
4273.00 6e-48
4275.00 6e-48
4276.00 6e-48
4277.00 6e-48
4279.00 6e-48
4280.00 6e-48
4282.00 6e-48
4283.00 6e-48
4285.00 6e-48
4286.00 6e-48
4288.00 6e-48
4289.00 6e-48
4290.00 6e-48
4292.00 6e-48
4293.00 6e-48
4295.00 6e-48
4296.00 6e-48
4298.00 6e-48
4299.00 6e-48
4301.00 6e-48
4302.00 6e-48
4303.00 6e-48
4305.00 6e-48
4306.00 6e-48
4308.00 6e-48
4309.00 6e-48
4311.00 6e-48
4312.00 6e-48
4314.00 6e-48
4315.00 1.2e-47
4316.00 6e-48
4318.00 1.2e-47
4319.00 6e-48
4321.00 1.2e-47
4322.00 1.2e-47
4324.00 1.2e-47
4325.00 1.2e-47
4327.00 1.2e-47
4328.00 1.2e-47
4329.00 1.2e-47
4331.00 1.2e-47
4332.00 1.2e-47
4334.00 1.2e-47
4335.00 1.2e-47
4337.00 1.2e-47
4338.00 1.2e-47
4340.00 1.2e-47
4341.00 1.2e-47
4342.00 1.2e-47
4344.00 1.2e-47
4345.00 1.2e-47
4347.00 1.2e-47
4348.00 1.2e-47
4350.00 1.2e-47
4351.00 1.2e-47
4353.00 1.2e-47
4354.00 1.2e-47
4356.00 1.2e-47
4357.00 1.2e-47
4358.00 1.2e-47
4360.00 1.2e-47
4361.00 1.2e-47
4363.00 1.2e-47
4364.00 1.2e-47
4366.00 1.2e-47
4367.00 1.2e-47
4368.00 1.2e-47
4370.00 1.2e-47
4371.00 1.2e-47
4373.00 1.2e-47
4374.00 1.2e-47
4375.00 1.2e-47
4377.00 1.2e-47
4378.00 1.2e-47
4380.00 1.2e-47
4381.00 1.2e-47
4383.00 1.2e-47
4384.00 1.2e-47
4385.00 1.2e-47
4387.00 1.2e-47
4388.00 1.2e-47
4390.00 1.2e-47
4391.00 1.2e-47
4392.00 1.2e-47
4394.00 1.2e-47
4395.00 1.2e-47
4397.00 1.2e-47
4398.00 1.8e-47
4400.00 1.8e-47
4401.00 1.8e-47
4402.00 1.8e-47
4404.00 1.8e-47
4405.00 1.8e-47
4407.00 1.8e-47
4408.00 1.8e-47
4410.00 1.8e-47
4411.00 1.8e-47
4412.00 1.8e-47
4414.00 1.8e-47
4415.00 1.8e-47
4417.00 2.4e-47
4418.00 2.4e-47
4419.00 2.4e-47
4421.00 2.4e-47
4422.00 2.4e-47
4424.00 2.4e-47
4425.00 2.4e-47
4427.00 2.4e-47
4428.00 3e-47
4429.00 3e-47
4431.00 3e-47
4432.00 3e-47
4434.00 3e-47
4435.00 3e-47
4437.00 3e-47
4438.00 3.6e-47
4439.00 3.6e-47
4441.00 3.6e-47
4442.00 3.6e-47
4444.00 3.6e-47
4445.00 4.2e-47
4446.00 4.2e-47
4448.00 4.2e-47
4449.00 4.2e-47
4451.00 4.8e-47
4452.00 4.8e-47
4454.00 4.8e-47
4455.00 4.8e-47
4456.00 5.4e-47
4458.00 5.4e-47
4459.00 5.4e-47
4461.00 6e-47
4462.00 6e-47
4464.00 6e-47
4465.00 6e-47
4466.00 6e-47
4468.00 6e-47
4469.00 6e-47
4471.00 6e-47
4472.00 6e-47
4473.00 6e-47
4475.00 6e-47
4476.00 5.4e-47
4478.00 5.4e-47
4479.00 5.4e-47
4481.00 4.8e-47
4482.00 4.8e-47
4483.00 4.8e-47
4485.00 4.2e-47
4486.00 4.2e-47
4488.00 4.2e-47
4489.00 3.6e-47
4491.00 3.6e-47
4492.00 3.6e-47
4493.00 3e-47
4495.00 3e-47
4496.00 3e-47
4498.00 3e-47
4499.00 2.4e-47
4500.00 2.4e-47
4502.00 2.4e-47
4503.00 2.4e-47
4505.00 2.4e-47
4506.00 1.8e-47
4508.00 1.8e-47
4509.00 1.8e-47
4510.00 1.8e-47
4512.00 1.8e-47
4513.00 1.8e-47
4515.00 1.8e-47
4516.00 1.2e-47
4517.00 1.2e-47
4519.00 1.2e-47
4520.00 1.2e-47
4522.00 1.2e-47
4523.00 1.2e-47
4525.00 1.2e-47
4526.00 1.2e-47
4527.00 1.2e-47
4529.00 1.2e-47
4530.00 1.2e-47
4532.00 1.2e-47
4533.00 1.2e-47
4535.00 1.2e-47
4536.00 1.2e-47
4537.00 1.2e-47
4539.00 1.2e-47
4540.00 1.2e-47
4542.00 1.2e-47
4543.00 1.2e-47
4544.00 1.2e-47
4546.00 1.2e-47
4547.00 1.2e-47
4549.00 1.2e-47
4551.00 1.2e-47
4552.00 1.2e-47
4554.00 1.2e-47
4555.00 1.2e-47
4557.00 1.2e-47
4558.00 1.2e-47
4560.00 1.2e-47
4561.00 1.2e-47
4563.00 1.2e-47
4564.00 1.2e-47
4565.00 1.2e-47
4567.00 1.2e-47
4568.00 1.2e-47
4570.00 1.2e-47
4571.00 1.2e-47
4573.00 1.2e-47
4574.00 6e-48
4576.00 1.2e-47
4577.00 1.2e-47
4579.00 1.2e-47
4580.00 1.2e-47
4582.00 1.2e-47
4583.00 1.2e-47
4584.00 1.2e-47
4586.00 1.2e-47
4587.00 1.2e-47
4589.00 1.2e-47
4590.00 1.2e-47
4592.00 1.2e-47
4593.00 1.2e-47
4595.00 1.2e-47
4596.00 1.2e-47
4598.00 1.2e-47
4599.00 1.2e-47
4601.00 1.2e-47
4602.00 1.2e-47
4603.00 1.2e-47
4605.00 1.2e-47
4606.00 1.2e-47
4608.00 1.2e-47
4609.00 1.2e-47
4611.00 1.2e-47
4612.00 1.2e-47
4614.00 1.2e-47
4615.00 1.2e-47
4617.00 1.2e-47
4618.00 1.2e-47
4620.00 1.2e-47
4621.00 1.2e-47
4622.00 1.8e-47
4624.00 1.8e-47
4625.00 1.8e-47
4627.00 1.8e-47
4628.00 1.8e-47
4630.00 1.8e-47
4631.00 1.8e-47
4633.00 1.8e-47
4634.00 1.8e-47
4636.00 1.8e-47
4637.00 1.8e-47
4639.00 1.8e-47
4640.00 2.4e-47
4641.00 2.4e-47
4643.00 2.4e-47
4644.00 2.4e-47
4646.00 2.4e-47
4647.00 2.4e-47
4649.00 2.4e-47
4650.00 2.4e-47
4652.00 2.4e-47
4653.00 3e-47
4655.00 3e-47
4656.00 3e-47
4658.00 3e-47
4659.00 3e-47
4660.00 3e-47
4662.00 3.6e-47
4663.00 3.6e-47
4665.00 3.6e-47
4666.00 3.6e-47
4668.00 4.2e-47
4669.00 4.2e-47
4671.00 4.2e-47
4672.00 4.2e-47
4674.00 4.8e-47
4675.00 4.8e-47
4677.00 4.8e-47
4678.00 5.4e-47
4680.00 5.4e-47
4681.00 6e-47
4683.00 6e-47
4684.00 6e-47
4686.00 6.6e-47
4687.00 6.6e-47
4689.00 7.2e-47
4690.00 7.8e-47
4692.00 7.8e-47
4693.00 8.4e-47
4694.00 8.4e-47
4696.00 9e-47
4697.00 9.6e-47
4699.00 9.6e-47
4700.00 1.02e-46
4702.00 1.08e-46
4703.00 1.14e-46
4705.00 1.2e-46
4706.00 1.26e-46
4708.00 1.32e-46
4709.00 1.38e-46
4710.00 1.44e-46
4712.00 1.5e-46
4713.00 1.56e-46
4715.00 1.62e-46
4716.00 1.68e-46
4718.00 1.74e-46
4719.00 1.86e-46
4721.00 1.92e-46
4722.00 1.98e-46
4723.00 2.04e-46
4725.00 2.16e-46
4726.00 2.22e-46
4728.00 2.28e-46
4729.00 2.4e-46
4731.00 2.46e-46
4732.00 2.52e-46
4734.00 2.64e-46
4735.00 2.7e-46
4736.00 2.82e-46
4738.00 2.88e-46
4739.00 3e-46
4741.00 3.12e-46
4742.00 3.18e-46
4744.00 3.36e-46
4745.00 3.48e-46
4747.00 3.6e-46
4748.00 3.78e-46
4749.00 3.96e-46
4751.00 4.14e-46
4752.00 4.32e-46
4754.00 4.5e-46
4755.00 4.74e-46
4757.00 4.92e-46
4758.00 5.16e-46
4760.00 5.4e-46
4761.00 5.58e-46
4762.00 5.82e-46
4764.00 6e-46
4765.00 6.12e-46
4767.00 6.24e-46
4768.00 6.36e-46
4770.00 6.42e-46
4771.00 6.42e-46
4773.00 6.42e-46
4774.00 6.36e-46
4775.00 6.3e-46
4777.00 6.18e-46
4778.00 6.06e-46
4780.00 5.94e-46
4781.00 5.82e-46
4783.00 5.64e-46
4784.00 5.46e-46
4786.00 5.28e-46
4787.00 5.1e-46
4788.00 4.92e-46
4790.00 4.74e-46
4791.00 4.5e-46
4793.00 4.32e-46
4794.00 4.14e-46
4796.00 3.9e-46
4797.00 3.72e-46
4799.00 3.54e-46
4800.00 3.3e-46
4802.00 3.12e-46
4803.00 2.94e-46
4805.00 2.76e-46
4806.00 2.58e-46
4808.00 2.46e-46
4809.00 2.28e-46
4811.00 2.16e-46
4812.00 1.98e-46
4814.00 1.86e-46
4815.00 1.74e-46
4817.00 1.62e-46
4818.00 1.5e-46
4820.00 1.38e-46
4821.00 1.26e-46
4823.00 1.2e-46
4824.00 1.08e-46
4825.00 1.02e-46
4827.00 9.6e-47
4828.00 9e-47
4830.00 8.4e-47
4831.00 7.8e-47
4833.00 7.2e-47
4834.00 6.6e-47
4835.00 6e-47
4837.00 5.4e-47
4838.00 4.8e-47
4840.00 4.8e-47
4841.00 4.2e-47
4843.00 4.2e-47
4844.00 3.6e-47
4846.00 3.6e-47
4847.00 3e-47
4848.00 3e-47
4850.00 2.4e-47
4851.00 2.4e-47
4853.00 2.4e-47
4854.00 2.4e-47
4856.00 1.8e-47
4857.00 1.8e-47
4859.00 1.8e-47
4860.00 1.8e-47
4861.00 1.2e-47
4863.00 1.2e-47
4864.00 1.2e-47
4866.00 1.2e-47
4867.00 1.2e-47
4869.00 1.2e-47
4870.00 1.2e-47
4871.00 1.2e-47
4873.00 1.2e-47
4874.00 6e-48
4876.00 6e-48
4877.00 6e-48
4879.00 6e-48
4880.00 6e-48
4882.00 6e-48
4883.00 6e-48
4884.00 6e-48
4886.00 6e-48
4887.00 6e-48
4889.00 6e-48
4890.00 6e-48
4892.00 6e-48
4893.00 6e-48
4895.00 6e-48
4896.00 6e-48
4897.00 6e-48
4899.00 6e-48
4900.00 6e-48
4902.00 6e-48
4903.00 6e-48
4905.00 6e-48
4906.00 6e-48
4907.00 6e-48
4909.00 6e-48
4910.00 6e-48
4912.00 6e-48
4913.00 6e-48
4915.00 6e-48
4916.00 6e-48
4918.00 6e-48
4919.00 6e-48
4920.00 6e-48
4922.00 6e-48
4923.00 6e-48
4925.00 6e-48
4926.00 6e-48
4928.00 1.2e-47
4929.00 6e-48
4931.00 1.2e-47
4932.00 1.2e-47
4933.00 1.2e-47
4935.00 1.2e-47
4936.00 1.2e-47
4938.00 1.2e-47
4939.00 1.2e-47
4941.00 1.2e-47
4942.00 1.2e-47
4943.00 1.2e-47
4945.00 1.2e-47
4946.00 1.2e-47
4948.00 1.2e-47
4949.00 1.2e-47
4951.00 1.2e-47
4952.00 1.2e-47
4954.00 1.2e-47
4955.00 1.2e-47
4956.00 1.2e-47
4958.00 1.2e-47
4959.00 1.2e-47
4961.00 1.2e-47
4962.00 1.2e-47
4964.00 1.2e-47
4965.00 1.2e-47
4966.00 1.2e-47
4968.00 1.2e-47
4969.00 1.2e-47
4971.00 6e-48
4972.00 6e-48
4974.00 6e-48
4975.00 6e-48
4977.00 6e-48
4978.00 6e-48
4979.00 6e-48
4981.00 6e-48
4982.00 6e-48
4984.00 6e-48
4985.00 6e-48
4987.00 6e-48
4988.00 6e-48
4990.00 6e-48
4991.00 6e-48
4992.00 6e-48
4994.00 6e-48
4995.00 6e-48
4997.00 6e-48
4998.00 6e-48
5000.00 6e-48
5001.00 6e-48
5002.00 6e-48
5004.00 6e-48
5005.00 6e-48
5007.00 6e-48
5008.00 6e-48
5010.00 6e-48
5011.00 6e-48
5013.00 6e-48
5014.00 6e-48
5015.00 6e-48
5017.00 6e-48
5018.00 6e-48
5020.00 6e-48
5021.00 6e-48
5023.00 6e-48
5024.00 6e-48
5026.00 6e-48
5027.00 6e-48
5028.00 6e-48
5030.00 6e-48
5031.00 6e-48
5033.00 6e-48
5034.00 6e-48
5036.00 6e-48
5037.00 6e-48
5038.00 6e-48
5040.00 6e-48
5041.00 6e-48
5043.00 6e-48
5044.00 6e-48
5046.00 6e-48
5047.00 6e-48
5049.00 6e-48
5050.00 6e-48
5051.00 6e-48
5053.00 6e-48
5054.00 6e-48
5056.00 6e-48
5057.00 6e-48
5059.00 6e-48
5060.00 6e-48
5062.00 6e-48
5063.00 6e-48
5064.00 6e-48
5066.00 6e-48
5067.00 6e-48
5069.00 6e-48
5070.00 6e-48
5072.00 6e-48
5073.00 6e-48
5074.00 6e-48
5076.00 6e-48
5077.00 6e-48
5079.00 6e-48
5080.00 6e-48
5082.00 6e-48
5083.00 6e-48
5085.00 6e-48
5086.00 6e-48
5087.00 6e-48
5089.00 6e-48
5090.00 6e-48
5092.00 6e-48
5093.00 6e-48
5095.00 6e-48
5096.00 6e-48
5097.00 6e-48
5099.00 6e-48
5100.00 6e-48
5102.00 6e-48
5103.00 1.2e-47
5104.00 1.2e-47
5106.00 1.2e-47
5107.00 1.2e-47
5109.00 1.2e-47
5110.00 1.2e-47
5112.00 1.2e-47
5113.00 1.2e-47
5114.00 1.2e-47
5116.00 1.2e-47
5117.00 1.2e-47
5119.00 1.2e-47
5120.00 1.2e-47
5121.00 1.2e-47
5123.00 1.2e-47
5124.00 1.2e-47
5126.00 1.2e-47
5127.00 1.2e-47
5129.00 1.2e-47
5130.00 1.2e-47
5131.00 1.2e-47
5133.00 1.2e-47
5134.00 1.2e-47
5136.00 1.2e-47
5137.00 1.2e-47
5139.00 1.2e-47
5140.00 1.2e-47
5141.00 1.2e-47
5143.00 1.2e-47
5144.00 1.2e-47
5146.00 1.2e-47
5147.00 1.2e-47
5148.00 1.8e-47
5150.00 1.8e-47
5151.00 1.8e-47
5153.00 1.8e-47
5154.00 1.8e-47
5156.00 1.8e-47
5157.00 1.8e-47
5158.00 1.8e-47
5160.00 1.8e-47
5161.00 1.8e-47
5163.00 1.8e-47
5164.00 1.8e-47
5165.00 1.8e-47
5167.00 1.8e-47
5168.00 1.8e-47
5170.00 1.8e-47
5171.00 1.8e-47
5173.00 1.8e-47
5174.00 1.8e-47
5175.00 1.8e-47
5177.00 1.8e-47
5178.00 1.8e-47
5180.00 1.8e-47
5181.00 1.8e-47
5183.00 2.4e-47
5184.00 2.4e-47
5185.00 2.4e-47
5187.00 2.4e-47
5188.00 2.4e-47
5190.00 2.4e-47
5191.00 2.4e-47
5192.00 2.4e-47
5194.00 2.4e-47
5195.00 2.4e-47
5197.00 2.4e-47
5198.00 2.4e-47
5200.00 2.4e-47
5201.00 2.4e-47
5202.00 2.4e-47
5204.00 2.4e-47
5205.00 2.4e-47
5207.00 2.4e-47
5208.00 3e-47
5209.00 3e-47
5211.00 3e-47
5212.00 3e-47
5214.00 3e-47
5215.00 3e-47
5217.00 3.6e-47
5218.00 3.6e-47
5219.00 3.6e-47
5221.00 3.6e-47
5222.00 3.6e-47
5224.00 4.2e-47
5225.00 4.2e-47
5227.00 4.2e-47
5228.00 4.8e-47
5229.00 4.8e-47
5231.00 4.8e-47
5232.00 4.8e-47
5234.00 5.4e-47
5235.00 5.4e-47
5236.00 5.4e-47
5238.00 5.4e-47
5239.00 6e-47
5241.00 6e-47
5242.00 6e-47
5244.00 6.6e-47
5245.00 6.6e-47
5246.00 6.6e-47
5248.00 7.2e-47
5249.00 7.2e-47
5252.00 7.2e-47
5253.00 7.8e-47
5255.00 7.8e-47
5256.00 7.8e-47
5258.00 7.8e-47
5259.00 7.8e-47
5261.00 8.4e-47
5262.00 8.4e-47
5263.00 8.4e-47
5265.00 8.4e-47
5266.00 9e-47
5268.00 9e-47
5269.00 9e-47
5271.00 9.6e-47
5272.00 9.6e-47
5274.00 9.6e-47
5275.00 1.02e-46
5277.00 1.02e-46
5278.00 1.02e-46
5279.00 1.02e-46
5281.00 1.08e-46
5282.00 1.08e-46
5284.00 1.08e-46
5285.00 1.08e-46
5287.00 1.14e-46
5288.00 1.14e-46
5290.00 1.14e-46
5291.00 1.14e-46
5292.00 1.2e-46
5294.00 1.2e-46
5295.00 1.2e-46
5297.00 1.2e-46
5298.00 1.26e-46
5300.00 1.26e-46
5301.00 1.26e-46
5303.00 1.26e-46
5304.00 1.32e-46
5306.00 1.32e-46
5307.00 1.32e-46
5308.00 1.32e-46
5310.00 1.32e-46
5311.00 1.32e-46
5313.00 1.38e-46
5314.00 1.38e-46
5316.00 1.38e-46
5317.00 1.38e-46
5319.00 1.38e-46
5320.00 1.38e-46
5321.00 1.38e-46
5323.00 1.38e-46
5324.00 1.38e-46
5326.00 1.38e-46
5327.00 1.38e-46
5329.00 1.38e-46
5330.00 1.38e-46
5332.00 1.38e-46
5333.00 1.38e-46
5335.00 1.32e-46
5336.00 1.32e-46
5337.00 1.32e-46
5339.00 1.26e-46
5340.00 1.26e-46
5342.00 1.2e-46
5343.00 1.2e-46
5345.00 1.2e-46
5346.00 1.14e-46
5348.00 1.08e-46
5349.00 1.08e-46
5350.00 1.02e-46
5352.00 1.02e-46
5353.00 9.6e-47
5355.00 9.6e-47
5356.00 9e-47
5358.00 9e-47
5359.00 8.4e-47
5361.00 8.4e-47
5362.00 7.8e-47
5364.00 7.8e-47
5365.00 7.8e-47
5366.00 7.8e-47
5368.00 7.2e-47
5369.00 7.2e-47
5371.00 7.2e-47
5372.00 6.6e-47
5374.00 6.6e-47
5375.00 6.6e-47
5377.00 6.6e-47
5378.00 6.6e-47
5379.00 6e-47
5381.00 6e-47
5382.00 6e-47
5384.00 6e-47
5385.00 6e-47
5387.00 6e-47
5388.00 5.4e-47
5390.00 5.4e-47
5391.00 5.4e-47
5393.00 5.4e-47
5394.00 5.4e-47
5395.00 5.4e-47
5397.00 5.4e-47
5398.00 4.8e-47
5400.00 4.8e-47
5401.00 4.8e-47
5403.00 4.8e-47
5404.00 4.8e-47
5406.00 4.8e-47
5407.00 4.8e-47
5408.00 4.8e-47
5410.00 4.8e-47
5411.00 4.8e-47
5413.00 4.8e-47
5414.00 4.8e-47
5416.00 4.8e-47
5417.00 4.2e-47
5419.00 4.2e-47
5420.00 4.2e-47
5422.00 4.2e-47
5423.00 4.2e-47
5424.00 4.2e-47
5426.00 4.2e-47
5427.00 4.2e-47
5429.00 4.2e-47
5430.00 4.2e-47
5432.00 4.2e-47
5433.00 4.2e-47
5435.00 4.2e-47
5436.00 4.2e-47
5437.00 4.2e-47
5439.00 4.2e-47
5440.00 4.2e-47
5442.00 4.2e-47
5443.00 4.2e-47
5445.00 4.2e-47
5446.00 4.2e-47
5448.00 4.2e-47
5449.00 4.2e-47
5451.00 4.2e-47
5452.00 4.2e-47
5453.00 4.2e-47
5455.00 4.2e-47
5456.00 4.2e-47
5458.00 4.2e-47
5459.00 4.2e-47
5461.00 4.2e-47
5462.00 4.2e-47
5464.00 4.2e-47
5465.00 4.2e-47
5467.00 4.2e-47
5468.00 4.2e-47
5469.00 4.2e-47
5471.00 4.2e-47
5472.00 4.2e-47
5474.00 4.2e-47
5475.00 4.2e-47
5477.00 4.2e-47
5478.00 4.2e-47
5480.00 4.2e-47
5481.00 4.2e-47
5482.00 4.2e-47
5484.00 4.2e-47
5485.00 4.2e-47
5487.00 4.2e-47
5488.00 4.2e-47
5490.00 4.2e-47
5491.00 4.2e-47
5493.00 4.2e-47
5494.00 4.2e-47
5496.00 4.2e-47
5497.00 4.2e-47
5498.00 4.2e-47
5500.00 4.2e-47
5501.00 4.2e-47
5503.00 4.8e-47
5504.00 4.8e-47
5506.00 4.2e-47
5507.00 4.2e-47
5509.00 4.8e-47
5510.00 4.8e-47
5511.00 4.8e-47
5513.00 4.8e-47
5514.00 4.8e-47
5516.00 4.8e-47
5517.00 4.8e-47
5519.00 4.8e-47
5520.00 4.8e-47
5522.00 4.8e-47
5523.00 4.8e-47
5525.00 4.8e-47
5526.00 4.8e-47
5527.00 4.8e-47
5529.00 4.8e-47
5530.00 4.8e-47
5532.00 5.4e-47
5533.00 5.4e-47
5535.00 5.4e-47
5536.00 5.4e-47
5538.00 5.4e-47
5539.00 5.4e-47
5540.00 5.4e-47
5542.00 5.4e-47
5543.00 5.4e-47
5545.00 5.4e-47
5546.00 5.4e-47
5548.00 6e-47
5549.00 6e-47
5551.00 6e-47
5552.00 6e-47
5554.00 6e-47
5555.00 6e-47
5556.00 6e-47
5558.00 6e-47
5559.00 6e-47
5561.00 6.6e-47
5562.00 6.6e-47
5564.00 6.6e-47
5565.00 6.6e-47
5567.00 6.6e-47
5568.00 6.6e-47
5569.00 7.2e-47
5571.00 7.2e-47
5572.00 7.2e-47
5574.00 7.2e-47
5575.00 7.2e-47
5577.00 7.2e-47
5578.00 7.8e-47
5580.00 7.8e-47
5581.00 7.8e-47
5583.00 7.8e-47
5584.00 7.8e-47
5585.00 8.4e-47
5587.00 8.4e-47
5588.00 8.4e-47
5590.00 9e-47
5591.00 9e-47
5593.00 9e-47
5594.00 9.6e-47
5596.00 9.6e-47
5597.00 9.6e-47
5598.00 1.02e-46
5600.00 1.02e-46
5601.00 1.02e-46
5603.00 1.08e-46
5604.00 1.08e-46
5606.00 1.08e-46
5607.00 1.14e-46
5609.00 1.14e-46
5610.00 1.2e-46
5612.00 1.2e-46
5613.00 1.26e-46
5614.00 1.26e-46
5616.00 1.26e-46
5617.00 1.32e-46
5619.00 1.38e-46
5620.00 1.38e-46
5622.00 1.44e-46
5623.00 1.44e-46
5625.00 1.5e-46
5626.00 1.56e-46
5627.00 1.56e-46
5629.00 1.62e-46
5630.00 1.62e-46
5632.00 1.68e-46
5633.00 1.74e-46
5635.00 1.8e-46
5636.00 1.8e-46
5638.00 1.86e-46
5639.00 1.92e-46
5641.00 1.98e-46
5642.00 2.04e-46
5643.00 2.1e-46
5645.00 2.1e-46
5646.00 2.16e-46
5648.00 2.22e-46
5649.00 2.34e-46
5651.00 2.34e-46
5652.00 2.46e-46
5654.00 2.52e-46
5655.00 2.58e-46
5656.00 2.64e-46
5658.00 2.7e-46
5659.00 2.76e-46
5661.00 2.88e-46
5662.00 2.94e-46
5664.00 3e-46
5665.00 3.12e-46
5667.00 3.18e-46
5668.00 3.3e-46
5670.00 3.36e-46
5671.00 3.48e-46
5672.00 3.6e-46
5674.00 3.66e-46
5675.00 3.78e-46
5677.00 3.84e-46
5678.00 3.96e-46
5680.00 4.08e-46
5681.00 4.2e-46
5683.00 4.32e-46
5684.00 4.44e-46
5685.00 4.5e-46
5687.00 4.68e-46
5688.00 4.74e-46
5690.00 4.92e-46
5691.00 4.98e-46
5693.00 5.16e-46
5694.00 5.28e-46
5696.00 5.4e-46
5697.00 5.52e-46
5699.00 5.64e-46
5700.00 5.82e-46
5701.00 5.94e-46
5703.00 6.06e-46
5704.00 6.24e-46
5706.00 6.36e-46
5707.00 6.48e-46
5709.00 6.6e-46
5710.00 6.78e-46
5712.00 6.9e-46
5713.00 7.08e-46
5714.00 7.2e-46
5716.00 7.32e-46
5717.00 7.44e-46
5719.00 7.62e-46
5720.00 7.74e-46
5722.00 7.92e-46
5723.00 8.04e-46
5725.00 8.22e-46
5726.00 8.28e-46
5728.00 8.46e-46
5729.00 8.58e-46
5730.00 8.76e-46
5732.00 8.82e-46
5733.00 9e-46
5735.00 9.12e-46
5736.00 9.24e-46
5738.00 9.36e-46
5739.00 9.48e-46
5741.00 9.6e-46
5742.00 9.72e-46
5743.00 9.78e-46
5745.00 9.9e-46
5746.00 1.002e-45
5748.00 1.014e-45
5749.00 1.02e-45
5751.00 1.032e-45
5752.00 1.038e-45
5754.00 1.044e-45
5755.00 1.05e-45
5757.00 1.062e-45
5758.00 1.068e-45
5759.00 1.074e-45
5761.00 1.08e-45
5762.00 1.086e-45
5764.00 1.086e-45
5765.00 1.098e-45
5767.00 1.098e-45
5768.00 1.104e-45
5770.00 1.104e-45
5771.00 1.104e-45
5773.00 1.104e-45
5774.00 1.11e-45
5776.00 1.104e-45
5777.00 1.104e-45
5779.00 1.098e-45
5780.00 1.092e-45
5782.00 1.086e-45
5783.00 1.08e-45
5785.00 1.062e-45
5786.00 1.056e-45
5788.00 1.038e-45
5789.00 1.02e-45
5791.00 1.002e-45
5792.00 9.84e-46
5794.00 9.54e-46
5795.00 9.36e-46
5796.00 9.06e-46
5798.00 8.82e-46
5799.00 8.52e-46
5801.00 8.28e-46
5802.00 7.98e-46
5803.00 7.68e-46
5805.00 7.38e-46
5806.00 7.14e-46
5808.00 6.9e-46
5809.00 6.6e-46
5810.00 6.36e-46
5812.00 6.12e-46
5813.00 5.88e-46
5815.00 5.64e-46
5816.00 5.4e-46
5818.00 5.22e-46
5819.00 4.98e-46
5820.00 4.8e-46
5822.00 4.62e-46
5823.00 4.44e-46
5825.00 4.26e-46
5826.00 4.08e-46
5827.00 3.96e-46
5829.00 3.78e-46
5830.00 3.66e-46
5832.00 3.54e-46
5833.00 3.36e-46
5835.00 3.24e-46
5836.00 3.12e-46
5837.00 3e-46
5839.00 2.88e-46
5840.00 2.76e-46
5842.00 2.64e-46
5843.00 2.52e-46
5844.00 2.46e-46
5846.00 2.34e-46
5847.00 2.28e-46
5849.00 2.16e-46
5850.00 2.1e-46
5852.00 1.98e-46
5853.00 1.92e-46
5854.00 1.86e-46
5856.00 1.8e-46
5857.00 1.68e-46
5859.00 1.62e-46
5860.00 1.56e-46
5861.00 1.5e-46
5863.00 1.44e-46
5864.00 1.38e-46
5866.00 1.32e-46
5867.00 1.26e-46
5868.00 1.2e-46
5870.00 1.14e-46
5871.00 1.14e-46
5873.00 1.08e-46
5874.00 1.02e-46
5876.00 1.02e-46
5877.00 9.6e-47
5878.00 9e-47
5880.00 9e-47
5881.00 8.4e-47
5883.00 8.4e-47
5884.00 7.8e-47
5885.00 7.2e-47
5887.00 7.2e-47
5888.00 6.6e-47
5890.00 6.6e-47
5891.00 6.6e-47
5893.00 6e-47
5894.00 6e-47
5895.00 5.4e-47
5897.00 5.4e-47
5898.00 5.4e-47
5900.00 4.8e-47
5901.00 4.8e-47
5902.00 4.8e-47
5904.00 4.2e-47
5905.00 4.2e-47
5907.00 4.2e-47
5908.00 4.2e-47
5909.00 3.6e-47
5911.00 3.6e-47
5912.00 3.6e-47
5914.00 3.6e-47
5915.00 3.6e-47
5917.00 3e-47
5918.00 3e-47
5919.00 3e-47
5921.00 3e-47
5922.00 3e-47
5924.00 2.4e-47
5925.00 2.4e-47
5926.00 2.4e-47
5928.00 2.4e-47
5929.00 2.4e-47
5931.00 2.4e-47
5932.00 2.4e-47
5934.00 2.4e-47
5935.00 2.4e-47
5936.00 2.4e-47
5938.00 1.8e-47
5939.00 1.8e-47
5941.00 1.8e-47
5942.00 1.8e-47
5943.00 1.8e-47
5945.00 1.8e-47
5946.00 1.8e-47
5948.00 1.8e-47
5949.00 1.8e-47
5950.00 1.8e-47
5952.00 1.8e-47
5953.00 1.8e-47
5955.00 1.8e-47
5956.00 1.8e-47
5958.00 1.8e-47
5959.00 1.8e-47
5960.00 1.8e-47
5962.00 1.8e-47
5963.00 1.8e-47
5965.00 1.8e-47
5966.00 1.8e-47
5967.00 1.8e-47
5969.00 1.8e-47
5970.00 1.8e-47
5972.00 1.8e-47
5973.00 1.8e-47
5975.00 1.8e-47
5976.00 1.8e-47
5977.00 1.8e-47
5979.00 1.8e-47
5980.00 1.8e-47
5982.00 1.8e-47
5983.00 1.8e-47
5984.00 1.8e-47
5986.00 1.8e-47
5987.00 1.8e-47
5989.00 1.8e-47
5990.00 1.8e-47
5992.00 1.8e-47
5993.00 1.8e-47
5994.00 1.8e-47
5996.00 1.8e-47
5997.00 1.8e-47
5999.00 1.8e-47
6000.00 1.8e-47
6001.00 1.8e-47
6003.00 1.8e-47
6004.00 1.8e-47
6006.00 1.8e-47
6007.00 1.8e-47
6008.00 1.8e-47
6010.00 1.8e-47
6011.00 2.4e-47
6013.00 2.4e-47
6014.00 2.4e-47
6016.00 2.4e-47
6017.00 2.4e-47
6018.00 2.4e-47
6020.00 2.4e-47
6021.00 2.4e-47
6023.00 2.4e-47
6024.00 2.4e-47
6025.00 2.4e-47
6027.00 2.4e-47
6028.00 2.4e-47
6030.00 2.4e-47
6031.00 2.4e-47
6033.00 2.4e-47
6034.00 2.4e-47
6035.00 2.4e-47
6037.00 2.4e-47
6038.00 2.4e-47
6040.00 2.4e-47
6041.00 2.4e-47
6042.00 2.4e-47
6044.00 2.4e-47
6045.00 2.4e-47
6047.00 2.4e-47
6048.00 2.4e-47
6049.00 3e-47
6051.00 3e-47
6052.00 3e-47
6054.00 3e-47
6055.00 3e-47
6057.00 3e-47
6058.00 3e-47
6059.00 3e-47
6061.00 3.6e-47
6062.00 3.6e-47
6064.00 3.6e-47
6065.00 3.6e-47
6066.00 3.6e-47
6068.00 4.2e-47
6069.00 4.2e-47
6071.00 4.2e-47
6072.00 4.2e-47
6074.00 4.2e-47
6075.00 4.2e-47
6076.00 4.2e-47
6078.00 4.2e-47
6079.00 4.2e-47
6081.00 4.8e-47
6082.00 4.8e-47
6083.00 4.8e-47
6085.00 4.8e-47
6086.00 4.8e-47
6088.00 4.8e-47
6089.00 4.8e-47
6090.00 5.4e-47
6092.00 5.4e-47
6093.00 5.4e-47
6095.00 5.4e-47
6096.00 5.4e-47
6098.00 5.4e-47
6099.00 5.4e-47
6100.00 6e-47
6102.00 6e-47
6103.00 6e-47
6105.00 6e-47
6106.00 6e-47
6107.00 6.6e-47
6109.00 6.6e-47
6110.00 6.6e-47
6112.00 6.6e-47
6113.00 6.6e-47
6115.00 7.2e-47
6116.00 7.2e-47
6117.00 7.2e-47
6119.00 7.8e-47
6120.00 7.8e-47
6122.00 7.8e-47
6123.00 7.8e-47
6124.00 7.8e-47
6126.00 8.4e-47
6127.00 8.4e-47
6129.00 8.4e-47
6130.00 9e-47
6132.00 9e-47
6133.00 9.6e-47
6134.00 9.6e-47
6136.00 1.02e-46
6137.00 1.02e-46
6139.00 1.02e-46
6140.00 1.02e-46
6141.00 1.08e-46
6143.00 1.08e-46
6144.00 1.08e-46
6146.00 1.14e-46
6147.00 1.14e-46
6148.00 1.14e-46
6150.00 1.2e-46
6151.00 1.2e-46
6153.00 1.26e-46
6154.00 1.26e-46
6156.00 1.26e-46
6157.00 1.32e-46
6158.00 1.32e-46
6160.00 1.38e-46
6161.00 1.38e-46
6163.00 1.44e-46
6164.00 1.44e-46
6165.00 1.5e-46
6167.00 1.5e-46
6168.00 1.56e-46
6170.00 1.56e-46
6171.00 1.62e-46
6173.00 1.68e-46
6174.00 1.68e-46
6175.00 1.74e-46
6177.00 1.74e-46
6178.00 1.8e-46
6180.00 1.86e-46
6181.00 1.86e-46
6182.00 1.92e-46
6184.00 1.98e-46
6185.00 1.98e-46
6187.00 2.04e-46
6188.00 2.1e-46
6189.00 2.16e-46
6191.00 2.22e-46
6192.00 2.22e-46
6194.00 2.28e-46
6195.00 2.34e-46
6197.00 2.4e-46
6198.00 2.46e-46
6199.00 2.52e-46
6201.00 2.58e-46
6202.00 2.64e-46
6204.00 2.64e-46
6205.00 2.76e-46
6206.00 2.82e-46
6208.00 2.88e-46
6209.00 2.94e-46
6211.00 3e-46
6212.00 3.06e-46
6214.00 3.12e-46
6215.00 3.18e-46
6216.00 3.3e-46
6218.00 3.36e-46
6219.00 3.42e-46
6221.00 3.48e-46
6222.00 3.6e-46
6223.00 3.66e-46
6225.00 3.72e-46
6226.00 3.84e-46
6228.00 3.9e-46
6229.00 3.96e-46
6230.00 4.08e-46
6232.00 4.14e-46
6233.00 4.26e-46
6235.00 4.32e-46
6236.00 4.44e-46
6238.00 4.5e-46
6239.00 4.56e-46
6240.00 4.68e-46
6242.00 4.74e-46
6243.00 4.86e-46
6245.00 4.92e-46
6246.00 5.04e-46
6247.00 5.1e-46
6249.00 5.22e-46
6250.00 5.28e-46
6252.00 5.34e-46
6253.00 5.46e-46
6255.00 5.52e-46
6256.00 5.64e-46
6257.00 5.7e-46
6259.00 5.82e-46
6260.00 5.88e-46
6262.00 6e-46
6263.00 6.06e-46
6264.00 6.12e-46
6266.00 6.18e-46
6267.00 6.3e-46
6269.00 6.36e-46
6270.00 6.42e-46
6271.00 6.48e-46
6273.00 6.6e-46
6274.00 6.6e-46
6276.00 6.72e-46
6277.00 6.78e-46
6279.00 6.84e-46
6280.00 6.84e-46
6281.00 6.96e-46
6283.00 6.96e-46
6284.00 7.02e-46
6286.00 7.02e-46
6287.00 7.08e-46
6288.00 7.08e-46
6290.00 7.14e-46
6291.00 7.14e-46
6293.00 7.2e-46
6294.00 7.2e-46
6296.00 7.2e-46
6297.00 7.2e-46
6298.00 7.26e-46
6300.00 7.2e-46
6301.00 7.26e-46
6303.00 7.2e-46
6304.00 7.2e-46
6305.00 7.2e-46
6307.00 7.2e-46
6308.00 7.14e-46
6310.00 7.14e-46
6311.00 7.08e-46
6313.00 7.08e-46
6314.00 7.02e-46
6315.00 7.02e-46
6317.00 6.96e-46
6318.00 6.96e-46
6320.00 6.84e-46
6321.00 6.84e-46
6322.00 6.72e-46
6324.00 6.72e-46
6325.00 6.6e-46
6327.00 6.54e-46
6328.00 6.48e-46
6329.00 6.42e-46
6331.00 6.3e-46
6332.00 6.24e-46
6334.00 6.12e-46
6335.00 6.06e-46
6337.00 5.94e-46
6338.00 5.88e-46
6339.00 5.76e-46
6341.00 5.64e-46
6342.00 5.52e-46
6344.00 5.46e-46
6345.00 5.34e-46
6346.00 5.22e-46
6348.00 5.1e-46
6349.00 5.04e-46
6351.00 4.92e-46
6352.00 4.8e-46
6354.00 4.68e-46
6355.00 4.56e-46
6356.00 4.5e-46
6358.00 4.38e-46
6359.00 4.26e-46
6361.00 4.2e-46
6362.00 4.08e-46
6363.00 3.96e-46
6365.00 3.9e-46
6366.00 3.78e-46
6368.00 3.72e-46
6369.00 3.6e-46
6370.00 3.54e-46
6372.00 3.42e-46
6373.00 3.36e-46
6375.00 3.24e-46
6376.00 3.18e-46
6377.00 3.12e-46
6379.00 3e-46
6380.00 2.94e-46
6381.00 2.82e-46
6383.00 2.76e-46
6384.00 2.7e-46
6386.00 2.64e-46
6387.00 2.52e-46
6388.00 2.46e-46
6390.00 2.4e-46
6391.00 2.34e-46
6393.00 2.28e-46
6394.00 2.16e-46
6395.00 2.1e-46
6397.00 2.04e-46
6398.00 1.98e-46
6400.00 1.92e-46
6401.00 1.86e-46
6402.00 1.8e-46
6404.00 1.74e-46
6405.00 1.68e-46
6406.00 1.62e-46
6408.00 1.56e-46
6409.00 1.5e-46
6411.00 1.5e-46
6412.00 1.44e-46
6413.00 1.38e-46
6415.00 1.32e-46
6416.00 1.26e-46
6418.00 1.2e-46
6419.00 1.2e-46
6420.00 1.14e-46
6422.00 1.08e-46
6423.00 1.08e-46
6425.00 1.02e-46
6426.00 9.6e-47
6427.00 9.6e-47
6429.00 9e-47
6430.00 9e-47
6432.00 8.4e-47
6433.00 7.8e-47
6434.00 7.8e-47
6436.00 7.2e-47
6437.00 7.2e-47
6438.00 6.6e-47
6440.00 6.6e-47
6441.00 6.6e-47
6443.00 6e-47
6444.00 6e-47
6445.00 5.4e-47
6447.00 5.4e-47
6448.00 5.4e-47
6450.00 4.8e-47
6451.00 4.8e-47
6452.00 4.8e-47
6454.00 4.2e-47
6455.00 4.2e-47
6457.00 4.2e-47
6458.00 3.6e-47
6459.00 3.6e-47
6461.00 3.6e-47
6462.00 3.6e-47
6463.00 3e-47
6465.00 3e-47
6466.00 3e-47
6468.00 3e-47
6469.00 3e-47
6470.00 3e-47
6472.00 2.4e-47
6473.00 2.4e-47
6475.00 2.4e-47
6476.00 2.4e-47
6477.00 2.4e-47
6479.00 2.4e-47
6480.00 1.8e-47
6482.00 1.8e-47
6483.00 1.8e-47
6484.00 1.8e-47
6486.00 1.8e-47
6487.00 1.8e-47
6489.00 1.8e-47
6490.00 1.8e-47
6491.00 1.8e-47
6493.00 1.8e-47
6494.00 1.2e-47
6495.00 1.2e-47
6497.00 1.2e-47
6498.00 1.2e-47
10000.00 0
10052.00 5.941e-48
10053.00 5.941e-48
10054.00 5.941e-48
10056.00 5.941e-48
10057.00 5.941e-48
10058.00 5.941e-48
10060.00 5.941e-48
10061.00 5.941e-48
10062.00 5.941e-48
10064.00 5.941e-48
10065.00 5.941e-48
10066.00 5.941e-48
10068.00 5.941e-48
10069.00 5.941e-48
10070.00 5.941e-48
10072.00 5.941e-48
10073.00 5.941e-48
10074.00 5.941e-48
10076.00 5.941e-48
10077.00 5.941e-48
10079.00 5.941e-48
10080.00 5.941e-48
10081.00 5.941e-48
10083.00 5.941e-48
10084.00 5.941e-48
10085.00 5.941e-48
10087.00 5.941e-48
10088.00 1.188e-47
10089.00 1.188e-47
10091.00 1.188e-47
10092.00 5.941e-48
10093.00 1.188e-47
10095.00 1.188e-47
10096.00 1.188e-47
10097.00 1.188e-47
10099.00 1.188e-47
10100.00 1.188e-47
10101.00 1.188e-47
10103.00 1.188e-47
10104.00 1.188e-47
10106.00 1.188e-47
10107.00 1.188e-47
10108.00 1.188e-47
10110.00 1.188e-47
10111.00 1.188e-47
10112.00 1.188e-47
10114.00 1.188e-47
10115.00 1.188e-47
10116.00 1.188e-47
10118.00 1.782e-47
10119.00 1.782e-47
10120.00 1.782e-47
10122.00 1.782e-47
10123.00 1.782e-47
10124.00 1.782e-47
10126.00 1.782e-47
10127.00 1.782e-47
10128.00 1.782e-47
10130.00 1.782e-47
10131.00 1.782e-47
10133.00 1.782e-47
10134.00 1.782e-47
10135.00 2.376e-47
10137.00 2.376e-47
10138.00 2.376e-47
10139.00 2.376e-47
10141.00 2.376e-47
10142.00 2.376e-47
10143.00 2.376e-47
10145.00 2.376e-47
10146.00 2.376e-47
10147.00 2.376e-47
10149.00 2.376e-47
10150.00 2.97e-47
10152.00 2.97e-47
10153.00 2.97e-47
10155.00 2.97e-47
10156.00 2.97e-47
10158.00 2.97e-47
10159.00 2.97e-47
10160.00 2.97e-47
10162.00 2.97e-47
10163.00 2.97e-47
10165.00 2.97e-47
10166.00 2.97e-47
10168.00 2.97e-47
10169.00 3.564e-47
10171.00 3.564e-47
10172.00 3.564e-47
10173.00 3.564e-47
10175.00 3.564e-47
10176.00 3.564e-47
10178.00 3.564e-47
10179.00 3.564e-47
10181.00 3.564e-47
10182.00 4.158e-47
10183.00 4.158e-47
10185.00 4.158e-47
10186.00 4.158e-47
10188.00 4.158e-47
10189.00 4.158e-47
10191.00 4.158e-47
10192.00 4.158e-47
10193.00 4.158e-47
10195.00 4.158e-47
10196.00 4.158e-47
10198.00 4.158e-47
10199.00 4.753e-47
10201.00 4.753e-47
10202.00 4.753e-47
10203.00 4.753e-47
10205.00 4.753e-47
10206.00 4.753e-47
10208.00 4.753e-47
10209.00 4.753e-47
10211.00 4.753e-47
10212.00 5.346e-47
10213.00 5.346e-47
10215.00 5.346e-47
10216.00 5.346e-47
10217.00 5.346e-47
10219.00 5.346e-47
10220.00 5.346e-47
10221.00 5.941e-47
10223.00 5.941e-47
10224.00 5.941e-47
10225.00 5.941e-47
10227.00 5.941e-47
10228.00 5.941e-47
10229.00 5.941e-47
10231.00 5.941e-47
10232.00 5.941e-47
10233.00 6.535e-47
10235.00 6.535e-47
10236.00 6.535e-47
10237.00 6.535e-47
10239.00 6.535e-47
10240.00 7.129e-47
10241.00 7.129e-47
10243.00 7.129e-47
10244.00 7.129e-47
10245.00 7.129e-47
10247.00 7.129e-47
10248.00 7.129e-47
10250.00 7.129e-47
10251.00 7.723e-47
10252.00 7.723e-47
10254.00 7.723e-47
10255.00 7.723e-47
10256.00 8.317e-47
10258.00 8.317e-47
10259.00 8.317e-47
10260.00 8.317e-47
10262.00 8.317e-47
10263.00 8.317e-47
10264.00 8.911e-47
10266.00 8.911e-47
10267.00 8.911e-47
10268.00 8.911e-47
10270.00 8.911e-47
10271.00 8.911e-47
10272.00 8.911e-47
10274.00 9.505e-47
10275.00 9.505e-47
10276.00 9.505e-47
10278.00 9.505e-47
10279.00 1.01e-46
10280.00 1.01e-46
10282.00 1.01e-46
10283.00 1.01e-46
10284.00 1.01e-46
10286.00 1.069e-46
10287.00 1.069e-46
10288.00 1.069e-46
10290.00 1.069e-46
10291.00 1.069e-46
10292.00 1.129e-46
10294.00 1.129e-46
10295.00 1.129e-46
10296.00 1.129e-46
10298.00 1.129e-46
10299.00 1.188e-46
10300.00 1.188e-46
10302.00 1.188e-46
10303.00 1.188e-46
10304.00 1.247e-46
10306.00 1.247e-46
10307.00 1.247e-46
10308.00 1.247e-46
10310.00 1.307e-46
10311.00 1.307e-46
10312.00 1.307e-46
10314.00 1.307e-46
10315.00 1.366e-46
10317.00 1.366e-46
10318.00 1.366e-46
10319.00 1.366e-46
10321.00 1.426e-46
10322.00 1.426e-46
10323.00 1.426e-46
10325.00 1.485e-46
10326.00 1.485e-46
10327.00 1.485e-46
10329.00 1.545e-46
10330.00 1.545e-46
10331.00 1.545e-46
10333.00 1.545e-46
10334.00 1.604e-46
10335.00 1.604e-46
10337.00 1.604e-46
10338.00 1.663e-46
10339.00 1.663e-46
10341.00 1.663e-46
10342.00 1.723e-46
10343.00 1.723e-46
10345.00 1.723e-46
10346.00 1.723e-46
10347.00 1.782e-46
10349.00 1.782e-46
10350.00 1.842e-46
10351.00 1.842e-46
10353.00 1.842e-46
10354.00 1.842e-46
10355.00 1.901e-46
10357.00 1.901e-46
10358.00 1.901e-46
10359.00 1.96e-46
10361.00 1.96e-46
10362.00 1.96e-46
10363.00 2.02e-46
10365.00 2.02e-46
10366.00 2.079e-46
10367.00 2.079e-46
10369.00 2.079e-46
10370.00 2.139e-46
10371.00 2.139e-46
10373.00 2.139e-46
10374.00 2.198e-46
10375.00 2.198e-46
10377.00 2.198e-46
10378.00 2.257e-46
10379.00 2.257e-46
10381.00 2.257e-46
10382.00 2.317e-46
10383.00 2.317e-46
10385.00 2.317e-46
10386.00 2.376e-46
10388.00 2.376e-46
10389.00 2.436e-46
10390.00 2.436e-46
10392.00 2.495e-46
10393.00 2.495e-46
10394.00 2.555e-46
10396.00 2.555e-46
10397.00 2.614e-46
10398.00 2.614e-46
10400.00 2.614e-46
10401.00 2.673e-46
10402.00 2.673e-46
10404.00 2.733e-46
10405.00 2.733e-46
10406.00 2.792e-46
10408.00 2.792e-46
10409.00 2.852e-46
10410.00 2.852e-46
10412.00 2.911e-46
10413.00 2.911e-46
10414.00 2.97e-46
10416.00 2.97e-46
10417.00 3.03e-46
10418.00 3.03e-46
10420.00 3.089e-46
10421.00 3.089e-46
10422.00 3.148e-46
10424.00 3.148e-46
10425.00 3.148e-46
10426.00 3.208e-46
10428.00 3.208e-46
10429.00 3.267e-46
10430.00 3.267e-46
10432.00 3.327e-46
10433.00 3.386e-46
10434.00 3.386e-46
10436.00 3.446e-46
10437.00 3.505e-46
10438.00 3.505e-46
10440.00 3.505e-46
10441.00 3.564e-46
10442.00 3.564e-46
10444.00 3.624e-46
10445.00 3.683e-46
10446.00 3.683e-46
10448.00 3.743e-46
10449.00 3.743e-46
10450.00 3.802e-46
10452.00 3.802e-46
10453.00 3.861e-46
10455.00 3.861e-46
10456.00 3.921e-46
10457.00 3.98e-46
10459.00 3.98e-46
10460.00 4.04e-46
10461.00 4.04e-46
10463.00 4.099e-46
10464.00 4.099e-46
10465.00 4.158e-46
10467.00 4.218e-46
10468.00 4.277e-46
10469.00 4.277e-46
10471.00 4.337e-46
10472.00 4.396e-46
10473.00 4.455e-46
10475.00 4.515e-46
10476.00 4.515e-46
10477.00 4.574e-46
10479.00 4.634e-46
10480.00 4.634e-46
10481.00 4.693e-46
10483.00 4.752e-46
10484.00 4.812e-46
10485.00 4.812e-46
10487.00 4.871e-46
10488.00 4.931e-46
10489.00 4.931e-46
10491.00 4.99e-46
10492.00 5.05e-46
10493.00 5.109e-46
10495.00 5.168e-46
10496.00 5.168e-46
10497.00 5.287e-46
10499.00 5.287e-46
10500.00 5.347e-46
10501.00 5.406e-46
10503.00 5.465e-46
10504.00 5.525e-46
10505.00 5.584e-46
10507.00 5.644e-46
10508.00 5.703e-46
10509.00 5.762e-46
10511.00 5.822e-46
10512.00 5.881e-46
10513.00 5.941e-46
10515.00 6e-46
10516.00 6.059e-46
10517.00 6.119e-46
10519.00 6.178e-46
10520.00 6.238e-46
10522.00 6.297e-46
10523.00 6.356e-46
10524.00 6.416e-46
10526.00 6.475e-46
10527.00 6.594e-46
10528.00 6.653e-46
10530.00 6.713e-46
10531.00 6.772e-46
10532.00 6.891e-46
10534.00 6.95e-46
10535.00 7.01e-46
10536.00 7.069e-46
10538.00 7.188e-46
10539.00 7.247e-46
10540.00 7.307e-46
10542.00 7.366e-46
10543.00 7.485e-46
10544.00 7.545e-46
10546.00 7.663e-46
10547.00 7.723e-46
10548.00 7.782e-46
10550.00 7.901e-46
10551.00 7.96e-46
10552.00 8.02e-46
10554.00 8.139e-46
10555.00 8.198e-46
10556.00 8.317e-46
10558.00 8.376e-46
10559.00 8.495e-46
10560.00 8.554e-46
10562.00 8.614e-46
10563.00 8.733e-46
10564.00 8.792e-46
10566.00 8.911e-46
10567.00 8.97e-46
10568.00 9.089e-46
10570.00 9.148e-46
10571.00 9.208e-46
10572.00 9.327e-46
10574.00 9.386e-46
10575.00 9.446e-46
10576.00 9.564e-46
10578.00 9.624e-46
10579.00 9.683e-46
10580.00 9.802e-46
10582.00 9.861e-46
10583.00 9.921e-46
10584.00 1.004e-45
10586.00 1.01e-45
10587.00 1.016e-45
10588.00 1.028e-45
10590.00 1.034e-45
10591.00 1.04e-45
10593.00 1.045e-45
10594.00 1.052e-45
10595.00 1.057e-45
10597.00 1.069e-45
10598.00 1.069e-45
10599.00 1.075e-45
10601.00 1.081e-45
10602.00 1.087e-45
10603.00 1.093e-45
10605.00 1.099e-45
10606.00 1.099e-45
10607.00 1.105e-45
10609.00 1.111e-45
10610.00 1.111e-45
10611.00 1.117e-45
10613.00 1.117e-45
10614.00 1.123e-45
10615.00 1.129e-45
10617.00 1.135e-45
10618.00 1.135e-45
10619.00 1.141e-45
10621.00 1.141e-45
10622.00 1.147e-45
10623.00 1.147e-45
10625.00 1.153e-45
10626.00 1.158e-45
10627.00 1.158e-45
10629.00 1.164e-45
10630.00 1.164e-45
10631.00 1.17e-45
10633.00 1.17e-45
10634.00 1.176e-45
10635.00 1.176e-45
10637.00 1.182e-45
10638.00 1.182e-45
10639.00 1.188e-45
10641.00 1.188e-45
10642.00 1.194e-45
10643.00 1.194e-45
10645.00 1.2e-45
10646.00 1.194e-45
10647.00 1.194e-45
10649.00 1.194e-45
10650.00 1.194e-45
10651.00 1.2e-45
10653.00 1.2e-45
10654.00 1.2e-45
10655.00 1.2e-45
10657.00 1.2e-45
10658.00 1.2e-45
10660.00 1.194e-45
10661.00 1.194e-45
10662.00 1.194e-45
10664.00 1.188e-45
10665.00 1.188e-45
10666.00 1.188e-45
10668.00 1.182e-45
10669.00 1.182e-45
10670.00 1.176e-45
10672.00 1.17e-45
10673.00 1.164e-45
10674.00 1.164e-45
10676.00 1.158e-45
10677.00 1.153e-45
10678.00 1.147e-45
10680.00 1.135e-45
10681.00 1.129e-45
10682.00 1.123e-45
10684.00 1.111e-45
10685.00 1.105e-45
10686.00 1.099e-45
10688.00 1.093e-45
10689.00 1.081e-45
10690.00 1.075e-45
10692.00 1.063e-45
10693.00 1.057e-45
10695.00 1.045e-45
10696.00 1.04e-45
10698.00 1.022e-45
10699.00 1.016e-45
10701.00 1.004e-45
10703.00 9.98e-46
10704.00 9.861e-46
10706.00 9.802e-46
10707.00 9.683e-46
10709.00 9.624e-46
10710.00 9.505e-46
10712.00 9.446e-46
10714.00 9.327e-46
10715.00 9.267e-46
10717.00 9.148e-46
10718.00 9.089e-46
10720.00 8.97e-46
10722.00 8.851e-46
10723.00 8.733e-46
10725.00 8.673e-46
10726.00 8.554e-46
10728.00 8.495e-46
10730.00 8.376e-46
10731.00 8.317e-46
10733.00 8.198e-46
10734.00 8.139e-46
10736.00 8.02e-46
10737.00 7.901e-46
10739.00 7.842e-46
10741.00 7.782e-46
10742.00 7.663e-46
10744.00 7.545e-46
10745.00 7.426e-46
10747.00 7.426e-46
10749.00 7.307e-46
10750.00 7.247e-46
10752.00 7.129e-46
10753.00 7.069e-46
10755.00 6.95e-46
10756.00 6.891e-46
10758.00 6.772e-46
10760.00 6.713e-46
10761.00 6.653e-46
10763.00 6.594e-46
10764.00 6.535e-46
10766.00 6.416e-46
10768.00 6.356e-46
10769.00 6.238e-46
10771.00 6.238e-46
10772.00 6.119e-46
10774.00 6.059e-46
10776.00 5.941e-46
10777.00 5.881e-46
10779.00 5.881e-46
10780.00 5.762e-46
10782.00 5.703e-46
10783.00 5.644e-46
10785.00 5.525e-46
10787.00 5.465e-46
10788.00 5.406e-46
10790.00 5.347e-46
10791.00 5.287e-46
10793.00 5.228e-46
10795.00 5.168e-46
10796.00 5.109e-46
10798.00 5.05e-46
10799.00 4.99e-46
10801.00 4.931e-46
10803.00 4.871e-46
10804.00 4.812e-46
10806.00 4.752e-46
10807.00 4.693e-46
10809.00 4.634e-46
10810.00 4.634e-46
10812.00 4.574e-46
10814.00 4.515e-46
10815.00 4.455e-46
10817.00 4.396e-46
10818.00 4.337e-46
10820.00 4.277e-46
10822.00 4.218e-46
10823.00 4.218e-46
10825.00 4.099e-46
10826.00 4.099e-46
10828.00 3.98e-46
10829.00 4.04e-46
10831.00 3.921e-46
10833.00 3.921e-46
10834.00 3.861e-46
10836.00 3.861e-46
10837.00 3.802e-46
10839.00 3.683e-46
10841.00 3.683e-46
10842.00 3.624e-46
10844.00 3.564e-46
10845.00 3.564e-46
10847.00 3.505e-46
10849.00 3.505e-46
10850.00 3.446e-46
10852.00 3.386e-46
10853.00 3.327e-46
10855.00 3.327e-46
10856.00 3.267e-46
10858.00 3.267e-46
10860.00 3.148e-46
10861.00 3.089e-46
10863.00 3.089e-46
10864.00 3.03e-46
10866.00 2.97e-46
10868.00 2.97e-46
10869.00 2.97e-46
10871.00 2.911e-46
10872.00 2.911e-46
10874.00 2.852e-46
10876.00 2.792e-46
10877.00 2.792e-46
10879.00 2.733e-46
10880.00 2.733e-46
10882.00 2.673e-46
10883.00 2.673e-46
10885.00 2.614e-46
10887.00 2.614e-46
10888.00 2.614e-46
10890.00 2.555e-46
10891.00 2.555e-46
10893.00 2.495e-46
10895.00 2.436e-46
10896.00 2.436e-46
10898.00 2.376e-46
10899.00 2.376e-46
10901.00 2.317e-46
10903.00 2.317e-46
10904.00 2.257e-46
10906.00 2.257e-46
10907.00 2.198e-46
10909.00 2.198e-46
10910.00 2.139e-46
10912.00 2.139e-46
10914.00 2.079e-46
10915.00 2.079e-46
10917.00 2.02e-46
10918.00 2.02e-46
10920.00 1.96e-46
10922.00 1.96e-46
10923.00 1.96e-46
10925.00 1.96e-46
10926.00 1.901e-46
10928.00 1.901e-46
10929.00 1.842e-46
10931.00 1.842e-46
10933.00 1.782e-46
10934.00 1.782e-46
10936.00 1.782e-46
10937.00 1.723e-46
10939.00 1.723e-46
10941.00 1.663e-46
10942.00 1.663e-46
10944.00 1.663e-46
10945.00 1.663e-46
10947.00 1.604e-46
10949.00 1.663e-46
10950.00 1.604e-46
10952.00 1.604e-46
10953.00 1.545e-46
10955.00 1.485e-46
10956.00 1.485e-46
10958.00 1.426e-46
10960.00 1.485e-46
10961.00 1.426e-46
10963.00 1.426e-46
10964.00 1.366e-46
10966.00 1.426e-46
10968.00 1.366e-46
10969.00 1.366e-46
10971.00 1.366e-46
10972.00 1.307e-46
10974.00 1.307e-46
10976.00 1.307e-46
10977.00 1.307e-46
10979.00 1.247e-46
10980.00 1.247e-46
10982.00 1.188e-46
10983.00 1.188e-46
10985.00 1.188e-46
10987.00 1.129e-46
10988.00 1.188e-46
10990.00 1.129e-46
10991.00 1.129e-46
10993.00 1.069e-46
10995.00 1.069e-46
10996.00 1.01e-46
10998.00 1.069e-46
10999.00 1.01e-46
11001.00 1.069e-46
11002.00 9.505e-47
11004.00 1.069e-46
11006.00 9.505e-47
11007.00 1.01e-46
11009.00 9.505e-47
11010.00 9.505e-47
11012.00 9.505e-47
11014.00 9.505e-47
11015.00 9.505e-47
11017.00 8.911e-47
11018.00 8.317e-47
11020.00 8.317e-47
11022.00 8.317e-47
11023.00 8.317e-47
11025.00 8.317e-47
11026.00 8.317e-47
11028.00 8.911e-47
11029.00 8.317e-47
11031.00 7.723e-47
11033.00 7.723e-47
11034.00 7.723e-47
11036.00 8.317e-47
11037.00 7.723e-47
11039.00 8.317e-47
11041.00 7.723e-47
11042.00 7.723e-47
11044.00 7.723e-47
11045.00 7.129e-47
11047.00 8.317e-47
11049.00 7.129e-47
11050.00 7.129e-47
11052.00 6.535e-47
11053.00 6.535e-47
11055.00 6.535e-47
11056.00 6.535e-47
11058.00 6.535e-47
11060.00 6.535e-47
11061.00 5.941e-47
11063.00 5.941e-47
11064.00 5.941e-47
11066.00 5.941e-47
11068.00 5.941e-47
11069.00 5.941e-47
11071.00 5.941e-47
11072.00 5.346e-47
11074.00 5.346e-47
11075.00 5.346e-47
11077.00 5.941e-47
11079.00 5.346e-47
11080.00 4.753e-47
11082.00 4.753e-47
11083.00 4.753e-47
11085.00 4.753e-47
11087.00 4.753e-47
11088.00 4.753e-47
11090.00 4.753e-47
11091.00 4.158e-47
11093.00 4.158e-47
11095.00 4.158e-47
11096.00 4.753e-47
11098.00 4.158e-47
11099.00 4.158e-47
11101.00 4.158e-47
11102.00 3.564e-47
11104.00 3.564e-47
11106.00 4.158e-47
11107.00 3.564e-47
11109.00 4.158e-47
11110.00 3.564e-47
11112.00 4.158e-47
11114.00 2.97e-47
11115.00 3.564e-47
11117.00 2.97e-47
11118.00 3.564e-47
11120.00 2.97e-47
11122.00 2.97e-47
11123.00 2.97e-47
11125.00 3.564e-47
11126.00 3.564e-47
11128.00 2.97e-47
11129.00 3.564e-47
11131.00 2.97e-47
11133.00 2.97e-47
11134.00 2.376e-47
11136.00 3.564e-47
11137.00 2.97e-47
11139.00 3.564e-47
11141.00 2.376e-47
11142.00 2.97e-47
11144.00 2.97e-47
11145.00 2.97e-47
11147.00 2.97e-47
11149.00 2.97e-47
11150.00 2.97e-47
11152.00 2.97e-47
11153.00 2.97e-47
11155.00 2.97e-47
11156.00 2.97e-47
11158.00 2.97e-47
11160.00 2.376e-47
11161.00 2.97e-47
11163.00 2.97e-47
11164.00 2.376e-47
11166.00 2.376e-47
11168.00 2.376e-47
11169.00 2.97e-47
11171.00 2.376e-47
11172.00 2.376e-47
11174.00 1.782e-47
11175.00 2.376e-47
11177.00 2.376e-47
11179.00 2.376e-47
11180.00 2.376e-47
11182.00 2.376e-47
11183.00 2.376e-47
11185.00 2.376e-47
11187.00 2.376e-47
11188.00 1.782e-47
11190.00 2.376e-47
11191.00 1.782e-47
11193.00 1.782e-47
11195.00 1.782e-47
11196.00 1.782e-47
11198.00 1.782e-47
11199.00 1.188e-47
11201.00 1.782e-47
11202.00 1.782e-47
11204.00 2.376e-47
11206.00 1.188e-47
11207.00 1.188e-47
11209.00 1.188e-47
11210.00 1.188e-47
11212.00 1.188e-47
11214.00 1.188e-47
11215.00 1.782e-47
11217.00 1.188e-47
11218.00 5.941e-48
11220.00 1.188e-47
11222.00 5.941e-48
11223.00 1.188e-47
11225.00 5.941e-48
11226.00 1.188e-47
11228.00 1.188e-47
11229.00 1.188e-47
11231.00 1.782e-47
11233.00 1.188e-47
11234.00 1.188e-47
11236.00 1.188e-47
11237.00 1.188e-47
11239.00 1.188e-47
11241.00 1.188e-47
11242.00 1.188e-47
11244.00 1.782e-47
11245.00 1.188e-47
11247.00 1.188e-47
11248.00 1.188e-47
11250.00 1.188e-47
11252.00 1.188e-47
11253.00 1.188e-47
11255.00 1.188e-47
11256.00 1.188e-47
11258.00 1.188e-47
11260.00 1.188e-47
11261.00 5.941e-48
11263.00 1.188e-47
11264.00 1.188e-47
11266.00 1.188e-47
11268.00 1.188e-47
11269.00 5.941e-48
11271.00 5.941e-48
11272.00 5.941e-48
11274.00 1.188e-47
11275.00 1.188e-47
11277.00 5.941e-48
11279.00 5.941e-48
11280.00 1.188e-47
11282.00 5.941e-48
11283.00 5.941e-48
11285.00 5.941e-48
11287.00 5.941e-48
11288.00 5.941e-48
11290.00 5.941e-48
11291.00 5.941e-48
11293.00 5.941e-48
11295.00 0
11296.00 5.941e-48
11298.00 5.941e-48
11299.00 5.941e-48
11301.00 0
11302.00 5.941e-48
11304.00 5.941e-48
11306.00 5.941e-48
11307.00 0
11309.00 5.941e-48
11310.00 0
11312.00 5.941e-48
11314.00 0
11315.00 5.941e-48
11317.00 5.941e-48
11318.00 5.941e-48
11320.00 0
11322.00 0
11323.00 0
11325.00 5.941e-48
11326.00 5.941e-48
11328.00 0
11329.00 0
11331.00 0
11333.00 0
11334.00 0
11336.00 0
11337.00 0
11339.00 0
11341.00 0
11342.00 0
11344.00 0
11345.00 0
11347.00 0
11348.00 0
11350.00 0
11352.00 0
11353.00 0
11355.00 0
11356.00 0
11358.00 0
11360.00 0
11361.00 0
11363.00 0
11364.00 5.941e-48
11366.00 0
11368.00 0
