1024
  2.8662000e+002  8.0169999e-019
  2.8674100e+002  9.3820004e-019
  2.8686200e+002  9.8199998e-019
  2.8698200e+002  9.7419997e-019
  2.8710300e+002  9.4729996e-019
  2.8722400e+002  8.9539996e-019
  2.8734500e+002  8.5179999e-019
  2.8746600e+002  8.2979998e-019
  2.8758700e+002  8.0370001e-019
  2.8770700e+002  7.6520002e-019
  2.8782800e+002  7.3180002e-019
  2.8794900e+002  7.0490000e-019
  2.8807000e+002  6.8229998e-019
  2.8819100e+002  6.6610001e-019
  2.8831200e+002  6.4970002e-019
  2.8843300e+002  6.7299999e-019
  2.8855300e+002  7.4019999e-019
  2.8867400e+002  8.6080002e-019
  2.8879500e+002  9.6979999e-019
  2.8891600e+002  9.8720005e-019
  2.8903700e+002  9.3260003e-019
  2.8915800e+002  8.5509997e-019
  2.8927800e+002  7.6350001e-019
  2.8939900e+002  6.8119998e-019
  2.8952000e+002  6.4099999e-019
  2.8964100e+002  6.4470002e-019
  2.8976200e+002  6.7100002e-019
  2.8988300e+002  6.9520002e-019
  2.9000300e+002  7.3279998e-019
  2.9012400e+002  8.0900001e-019
  2.9024500e+002  8.1120000e-019
  2.9036600e+002  7.8170000e-019
  2.9048700e+002  7.9760001e-019
  2.9060800e+002  8.6909995e-019
  2.9072800e+002  9.5460003e-019
  2.9084900e+002  9.3260003e-019
  2.9097000e+002  8.4340002e-019
  2.9109100e+002  7.6200002e-019
  2.9121200e+002  6.9829998e-019
  2.9133300e+002  6.3999998e-019
  2.9145300e+002  5.8890002e-019
  2.9157400e+002  5.6419999e-019
  2.9169500e+002  5.9490002e-019
  2.9181600e+002  6.7040000e-019
  2.9193700e+002  7.3580001e-019
  2.9205800e+002  7.6469999e-019
  2.9217800e+002  8.3479998e-019
  2.9229900e+002  9.1070001e-019
  2.9242000e+002  9.2770001e-019
  2.9254100e+002  9.1879996e-019
  2.9266200e+002  8.7220002e-019
  2.9278300e+002  8.1070002e-019
  2.9290300e+002  7.3919998e-019
  2.9302400e+002  6.7049999e-019
  2.9314500e+002  6.0680000e-019
  2.9326600e+002  5.4990000e-019
  2.9338700e+002  5.1510000e-019
  2.9350800e+002  5.1720000e-019
  2.9362900e+002  5.5940002e-019
  2.9374900e+002  6.5790001e-019
  2.9387000e+002  8.2119999e-019
  2.9399100e+002  9.1079999e-019
  2.9411200e+002  9.0579999e-019
  2.9423300e+002  8.5780000e-019
  2.9435400e+002  8.7000003e-019
  2.9447400e+002  9.1029996e-019
  2.9459500e+002  9.0980003e-019
  2.9471600e+002  8.2680001e-019
  2.9483700e+002  7.1020001e-019
  2.9495800e+002  6.1939998e-019
  2.9507900e+002  5.5420000e-019
  2.9519900e+002  4.9730000e-019
  2.9532000e+002  4.5280001e-019
  2.9544100e+002  4.3530002e-019
  2.9556200e+002  4.2679999e-019
  2.9568300e+002  4.7200001e-019
  2.9580400e+002  6.2920000e-019
  2.9592400e+002  7.8160001e-019
  2.9604500e+002  9.1019997e-019
  2.9616600e+002  9.8030002e-019
  2.9628700e+002  9.9909997e-019
  2.9640800e+002  9.0579999e-019
  2.9652900e+002  7.6869998e-019
  2.9664900e+002  6.5570002e-019
  2.9677000e+002  5.7820002e-019
  2.9689100e+002  5.3500000e-019
  2.9701200e+002  4.9389998e-019
  2.9713300e+002  4.2749999e-019
  2.9725400e+002  3.6919999e-019
  2.9737400e+002  3.3410001e-019
  2.9749500e+002  3.3390001e-019
  2.9761600e+002  3.8079999e-019
  2.9773700e+002  4.8840000e-019
  2.9785800e+002  6.7400000e-019
  2.9797900e+002  8.7409995e-019
  2.9809900e+002  9.5569997e-019
  2.9822000e+002  9.2110004e-019
  2.9834100e+002  8.6850004e-019
  2.9846200e+002  8.1570002e-019
  2.9858300e+002  7.2419999e-019
  2.9870400e+002  6.1600001e-019
  2.9882400e+002  5.2409998e-019
  2.9894500e+002  4.5369998e-019
  2.9906600e+002  3.9749999e-019
  2.9918700e+002  3.5060001e-019
  2.9930800e+002  3.1289999e-019
  2.9942900e+002  2.9800001e-019
  2.9954900e+002  3.0149999e-019
  2.9967000e+002  3.2790000e-019
  2.9979100e+002  4.1280001e-019
  2.9991200e+002  6.3400003e-019
  3.0003300e+002  9.3030005e-019
  3.0015400e+002  1.0480000e-018
  3.0027500e+002  9.4589995e-019
  3.0039500e+002  8.0839999e-019
  3.0051600e+002  6.8799998e-019
  3.0063700e+002  5.8089999e-019
  3.0075800e+002  4.9090000e-019
  3.0087900e+002  4.2149999e-019
  3.0100000e+002  3.7020000e-019
  3.0112000e+002  3.2380001e-019
  3.0124100e+002  2.8159999e-019
  3.0136200e+002  2.5080000e-019
  3.0148300e+002  2.3410000e-019
  3.0160400e+002  2.4740000e-019
  3.0172500e+002  3.1540001e-019
  3.0184500e+002  4.4150000e-019
  3.0196600e+002  6.3789997e-019
  3.0208700e+002  8.0169999e-019
  3.0220800e+002  8.5819999e-019
  3.0232900e+002  8.1809998e-019
  3.0245000e+002  7.3239998e-019
  3.0257000e+002  6.2600000e-019
  3.0269100e+002  5.2150000e-019
  3.0281200e+002  4.3669997e-019
  3.0293300e+002  3.7000001e-019
  3.0305400e+002  3.1510000e-019
  3.0317500e+002  2.7190001e-019
  3.0329500e+002  2.4229999e-019
  3.0341600e+002  2.2440001e-019
  3.0353700e+002  2.1939999e-019
  3.0365800e+002  2.2989999e-019
  3.0377900e+002  2.5290000e-019
  3.0390000e+002  3.0110000e-019
  3.0402000e+002  4.1540000e-019
  3.0414100e+002  6.0500000e-019
  3.0426200e+002  7.9870001e-019
  3.0438300e+002  7.3190000e-019
  3.0450400e+002  6.3630000e-019
  3.0462500e+002  5.4579998e-019
  3.0474600e+002  4.5149999e-019
  3.0486600e+002  3.7399999e-019
  3.0498700e+002  3.1720001e-019
  3.0510800e+002  2.7339999e-019
  3.0522900e+002  2.3640000e-019
  3.0535000e+002  2.0600000e-019
  3.0547100e+002  1.8470000e-019
  3.0559100e+002  1.7870000e-019
  3.0571200e+002  1.8690000e-019
  3.0583300e+002  2.1029999e-019
  3.0595400e+002  2.6200000e-019
  3.0607500e+002  3.3919999e-019
  3.0619600e+002  4.2120001e-019
  3.0631600e+002  5.0559998e-019
  3.0643700e+002  5.8489998e-019
  3.0655800e+002  6.1229998e-019
  3.0667900e+002  5.4270002e-019
  3.0680000e+002  4.3640002e-019
  3.0692100e+002  3.5480000e-019
  3.0704100e+002  3.0040000e-019
  3.0716200e+002  2.6379999e-019
  3.0728300e+002  2.3449999e-019
  3.0740400e+002  2.0280000e-019
  3.0752500e+002  1.8799999e-019
  3.0764600e+002  1.8510000e-019
  3.0776600e+002  1.8580000e-019
  3.0788700e+002  1.8530000e-019
  3.0800800e+002  1.8910000e-019
  3.0812900e+002  2.1910001e-019
  3.0825000e+002  2.5750001e-019
  3.0837100e+002  3.0309999e-019
  3.0849100e+002  3.9519999e-019
  3.0861200e+002  4.8219998e-019
  3.0873300e+002  4.8319998e-019
  3.0885400e+002  4.2050000e-019
  3.0897500e+002  3.4769999e-019
  3.0909600e+002  2.8510000e-019
  3.0921600e+002  2.3820000e-019
  3.0933700e+002  2.0350000e-019
  3.0945800e+002  1.7720000e-019
  3.0957900e+002  1.6319999e-019
  3.0970000e+002  1.6310000e-019
  3.0982100e+002  1.6719999e-019
  3.0994100e+002  1.6790000e-019
  3.1006200e+002  1.7450001e-019
  3.1018300e+002  1.8840000e-019
  3.1030400e+002  1.9910000e-019
  3.1042500e+002  2.1230000e-019
  3.1054600e+002  2.5829999e-019
  3.1066700e+002  3.2310000e-019
  3.1078700e+002  3.4460001e-019
  3.1090800e+002  2.9710001e-019
  3.1102900e+002  2.6290000e-019
  3.1115000e+002  2.4380001e-019
  3.1127100e+002  2.1869999e-019
  3.1139200e+002  1.8990000e-019
  3.1151200e+002  1.5790000e-019
  3.1163300e+002  1.3470000e-019
  3.1175400e+002  1.2270000e-019
  3.1187500e+002  1.2200000e-019
  3.1199600e+002  1.2960000e-019
  3.1211700e+002  1.3340000e-019
  3.1223700e+002  1.3140001e-019
  3.1235800e+002  1.3080000e-019
  3.1247900e+002  1.3790000e-019
  3.1260000e+002  1.4830000e-019
  3.1272100e+002  1.5670000e-019
  3.1284200e+002  1.7710000e-019
  3.1296200e+002  2.1140000e-019
  3.1308300e+002  2.3679999e-019
  3.1320400e+002  2.3180000e-019
  3.1332500e+002  2.0319999e-019
  3.1344600e+002  1.7170000e-019
  3.1356700e+002  1.4310000e-019
  3.1368700e+002  1.2530000e-019
  3.1380800e+002  1.1940001e-019
  3.1392900e+002  1.1440000e-019
  3.1405000e+002  1.0030000e-019
  3.1417100e+002  9.0369999e-020
  3.1429200e+002  8.5879998e-020
  3.1441200e+002  9.1599997e-020
  3.1453300e+002  1.0240000e-019
  3.1465400e+002  1.1150000e-019
  3.1477500e+002  1.1550000e-019
  3.1489600e+002  1.1410000e-019
  3.1501700e+002  1.0990000e-019
  3.1513700e+002  1.2080000e-019
  3.1525800e+002  1.3910000e-019
  3.1537900e+002  1.3510000e-019
  3.1550000e+002  1.2430000e-019
  3.1562100e+002  1.2660001e-019
  3.1574200e+002  1.3500000e-019
  3.1586200e+002  1.2110000e-019
  3.1598300e+002  1.0220000e-019
  3.1610400e+002  8.7960002e-020
  3.1622500e+002  7.8600001e-020
  3.1634600e+002  7.3719997e-020
  3.1646700e+002  7.3920000e-020
  3.1658800e+002  8.0749998e-020
  3.1670800e+002  8.7339998e-020
  3.1682900e+002  8.7680001e-020
  3.1695000e+002  8.7099999e-020
  3.1707100e+002  8.9260000e-020
  3.1719200e+002  9.3849999e-020
  3.1731300e+002  9.2010001e-020
  3.1743300e+002  8.4399997e-020
  3.1755400e+002  7.8469998e-020
  3.1767500e+002  7.7440003e-020
  3.1779600e+002  7.8780003e-020
  3.1791700e+002  8.2069998e-020
  3.1803800e+002  8.9400000e-020
  3.1815800e+002  9.1190000e-020
  3.1827900e+002  8.2509999e-020
  3.1840000e+002  7.3169999e-020
  3.1852100e+002  6.4659998e-020
  3.1864200e+002  5.5360000e-020
  3.1876300e+002  4.7939999e-020
  3.1888300e+002  4.3720001e-020
  3.1900400e+002  4.3799999e-020
  3.1912500e+002  4.5630000e-020
  3.1924600e+002  4.6640000e-020
  3.1936700e+002  4.9960000e-020
  3.1948800e+002  5.6340002e-020
  3.1960800e+002  6.1140002e-020
  3.1972900e+002  6.1240000e-020
  3.1985000e+002  6.0119997e-020
  3.1997100e+002  5.5999998e-020
  3.2009200e+002  4.9180001e-020
  3.2021300e+002  4.3450001e-020
  3.2033300e+002  3.9279999e-020
  3.2045400e+002  3.8040001e-020
  3.2057500e+002  3.7729999e-020
  3.2069600e+002  3.7110001e-020
  3.2081700e+002  3.9030000e-020
  3.2093800e+002  4.1780001e-020
  3.2105800e+002  4.5920001e-020
  3.2117900e+002  4.0529999e-020
  3.2130000e+002  3.4869999e-020
  3.2142100e+002  3.0539999e-020
  3.2154200e+002  2.7010000e-020
  3.2166300e+002  2.5299999e-020
  3.2178400e+002  2.4950000e-020
  3.2190400e+002  2.6660000e-020
  3.2202500e+002  2.7820000e-020
  3.2214600e+002  2.9610000e-020
  3.2226700e+002  2.9850001e-020
  3.2238800e+002  2.8469999e-020
  3.2250900e+002  2.9799999e-020
  3.2262900e+002  3.2580001e-020
  3.2275000e+002  3.1380001e-020
  3.2287100e+002  2.6650000e-020
  3.2299200e+002  2.2520000e-020
  3.2311300e+002  1.9560001e-020
  3.2323400e+002  1.7270000e-020
  3.2335400e+002  1.6310000e-020
  3.2347500e+002  1.5770000e-020
  3.2359600e+002  1.5420000e-020
  3.2371700e+002  1.5340000e-020
  3.2383800e+002  1.6450000e-020
  3.2395900e+002  1.8070000e-020
  3.2407900e+002  1.9510000e-020
  3.2420000e+002  1.9820000e-020
  3.2432100e+002  1.8520000e-020
  3.2444200e+002  1.6629999e-020
  3.2456300e+002  1.5390001e-020
  3.2468400e+002  1.5229999e-020
  3.2480400e+002  1.5340000e-020
  3.2492500e+002  1.5340000e-020
  3.2504600e+002  1.5490001e-020
  3.2516700e+002  1.6199999e-020
  3.2528800e+002  1.5980000e-020
  3.2540900e+002  1.4629999e-020
  3.2552900e+002  1.3690001e-020
  3.2565000e+002  1.3280000e-020
  3.2577100e+002  1.3150000e-020
  3.2589200e+002  1.3410000e-020
  3.2601300e+002  1.3180000e-020
  3.2613400e+002  1.2100000e-020
  3.2625400e+002  1.1020000e-020
  3.2637500e+002  1.0290000e-020
  3.2649600e+002  9.9009997e-021
  3.2661700e+002  9.4720000e-021
  3.2673800e+002  9.0900000e-021
  3.2685900e+002  8.9829997e-021
  3.2697900e+002  9.3130003e-021
  3.2710000e+002  9.6250001e-021
  3.2722100e+002  1.0440000e-020
  3.2734200e+002  1.0960000e-020
  3.2746300e+002  1.0570000e-020
  3.2758400e+002  9.7649996e-021
  3.2770400e+002  9.4009998e-021
  3.2782500e+002  8.8590002e-021
  3.2794600e+002  8.4910001e-021
  3.2806700e+002  8.5770002e-021
  3.2818800e+002  8.7649996e-021
  3.2830900e+002  8.6829997e-021
  3.2843000e+002  8.4110003e-021
  3.2855000e+002  8.1390000e-021
  3.2867100e+002  7.9430002e-021
  3.2879200e+002  7.9430002e-021
  3.2891300e+002  7.9430002e-021
  3.2903400e+002  7.9430002e-021
  3.2915500e+002  8.0800004e-021
  3.2927500e+002  8.4900001e-021
  3.2939600e+002  8.2960004e-021
  3.2951700e+002  7.5430002e-021
  3.2963800e+002  7.0600003e-021
  3.2975900e+002  6.7279999e-021
  3.2988000e+002  6.2999998e-021
  3.3000000e+002  6.2999998e-021
  3.3012100e+002  6.2999998e-021
  3.3024200e+002  6.2460000e-021
  3.3036300e+002  6.0780000e-021
  3.3048400e+002  6.2999998e-021
  3.3060500e+002  6.3490002e-021
  3.3072500e+002  6.5250002e-021
  3.3084600e+002  6.2040000e-021
  3.3096700e+002  5.6599999e-021
  3.3108800e+002  5.2040000e-021
  3.3120900e+002  5.2480001e-021
  3.3133000e+002  5.4349999e-021
  3.3145000e+002  5.1620000e-021
  3.3157100e+002  4.9300001e-021
  3.3169200e+002  4.8900002e-021
  3.3181300e+002  4.6560001e-021
  3.3193400e+002  4.6560001e-021
  3.3205500e+002  4.6560001e-021
  3.3217500e+002  4.6929999e-021
  3.3229600e+002  4.9659998e-021
  3.3241700e+002  5.1689999e-021
  3.3253800e+002  4.9300001e-021
  3.3265900e+002  4.8970001e-021
  3.3278000e+002  4.6560001e-021
  3.3290100e+002  4.6239998e-021
  3.3302100e+002  4.3820002e-021
  3.3314200e+002  4.3820002e-021
  3.3326300e+002  4.3820002e-021
  3.3338400e+002  4.3520000e-021
  3.3350500e+002  4.1079999e-021
  3.3362600e+002  4.0790001e-021
  3.3374600e+002  3.8640002e-021
  3.3386700e+002  4.1370000e-021
  3.3398800e+002  4.3820002e-021
  3.3410900e+002  4.3540001e-021
  3.3423000e+002  4.1079999e-021
  3.3435100e+002  4.0810002e-021
  3.3447100e+002  3.8350000e-021
  3.3459200e+002  3.8350000e-021
  3.3471300e+002  3.8900002e-021
  3.3483400e+002  4.3550001e-021
  3.3495500e+002  4.1079999e-021
  3.3507600e+002  4.1079999e-021
  3.3519600e+002  4.0810002e-021
  3.3531700e+002  3.8350000e-021
  3.3543800e+002  3.8350000e-021
  3.3555900e+002  3.8350000e-021
  3.3568000e+002  3.8350000e-021
  3.3580100e+002  3.8350000e-021
  3.3592100e+002  3.8050001e-021
  3.3604200e+002  3.5899998e-021
  3.3616300e+002  3.8350000e-021
  3.3628400e+002  3.8040001e-021
  3.3640500e+002  3.5919999e-021
  3.3652600e+002  3.8659998e-021
  3.3664600e+002  4.0450000e-021
  3.3676700e+002  3.5610000e-021
  3.3688800e+002  3.5280000e-021
  3.3700900e+002  3.3200001e-021
  3.3713000e+002  3.5610000e-021
  3.3725100e+002  3.5610000e-021
  3.3737100e+002  3.6319998e-021
  3.3749200e+002  3.9989998e-021
  3.3761300e+002  3.3610000e-021
  3.3773400e+002  3.7970001e-021
  3.3785500e+002  3.5999999e-021
  3.3797600e+002  3.8339999e-021
  3.3809600e+002  3.7530000e-021
  3.3821700e+002  3.2450001e-021
  3.3833800e+002  3.0560000e-021
  3.3845900e+002  3.2870001e-021
  3.3858000e+002  3.2870001e-021
  3.3870100e+002  3.2410001e-021
  3.3882200e+002  3.1070000e-021
  3.3894200e+002  3.5120001e-021
  3.3906300e+002  3.2870001e-021
  3.3918400e+002  3.2870001e-021
  3.3930500e+002  3.2870001e-021
  3.3942600e+002  3.2339999e-021
  3.3954700e+002  3.0680000e-021
  3.3966700e+002  3.2870001e-021
  3.3978800e+002  3.2299999e-021
  3.3990900e+002  3.0720000e-021
  3.4003000e+002  3.2870001e-021
  3.4015100e+002  3.2250001e-021
  3.4027200e+002  3.0129999e-021
  3.4039200e+002  3.0129999e-021
  3.4051300e+002  3.0129999e-021
  3.4063400e+002  3.0129999e-021
  3.4075500e+002  3.0820000e-021
  3.4087600e+002  3.1440000e-021
  3.4099700e+002  2.8120001e-021
  3.4111700e+002  3.0129999e-021
  3.4123800e+002  3.0900000e-021
  3.4135900e+002  3.2080001e-021
  3.4148000e+002  3.0129999e-021
  3.4160100e+002  3.0129999e-021
  3.4172200e+002  3.0970000e-021
  3.4184200e+002  3.2009999e-021
  3.4196300e+002  3.1010000e-021
  3.4208400e+002  3.1970000e-021
  3.4220500e+002  3.1970000e-021
  3.4232600e+002  3.4659999e-021
  3.4244700e+002  3.2870001e-021
  3.4256700e+002  3.1879999e-021
  3.4268800e+002  2.9120001e-021
  3.4280900e+002  2.8419999e-021
  3.4293000e+002  3.0129999e-021
  3.4305100e+002  3.0129999e-021
  3.4317200e+002  3.1220000e-021
  3.4329200e+002  3.1749999e-021
  3.4341300e+002  3.2410001e-021
  3.4353400e+002  3.3270000e-021
  3.4365500e+002  3.0129999e-021
  3.4377600e+002  3.1350000e-021
  3.4389700e+002  3.2870001e-021
  3.4401700e+002  3.4130001e-021
  3.4413800e+002  3.4310002e-021
  3.4425900e+002  3.1549999e-021
  3.4438000e+002  3.2820000e-021
  3.4450100e+002  3.4230002e-021
  3.4462200e+002  3.2870001e-021
  3.4474300e+002  3.2870001e-021
  3.4486300e+002  3.4319998e-021
  3.4498400e+002  3.5610000e-021
  3.4510500e+002  3.5600000e-021
  3.4522600e+002  3.4069998e-021
  3.4534700e+002  3.2860000e-021
  3.4546800e+002  3.1280000e-021
  3.4558800e+002  3.1749999e-021
  3.4570900e+002  3.2870001e-021
  3.4583000e+002  3.2870001e-021
  3.4595100e+002  3.4569998e-021
  3.4607200e+002  3.3870001e-021
  3.4619300e+002  3.2870001e-021
  3.4631300e+002  3.4669999e-021
  3.4643400e+002  3.3770000e-021
  3.4655500e+002  3.1010000e-021
  3.4667600e+002  3.3909999e-021
  3.4679700e+002  3.3680000e-021
  3.4691800e+002  3.4829999e-021
  3.4703800e+002  3.7589999e-021
  3.4715900e+002  3.6319998e-021
  3.4728000e+002  3.5610000e-021
  3.4740100e+002  3.5600000e-021
  3.4752200e+002  3.3490000e-021
  3.4764300e+002  3.5030000e-021
  3.4776300e+002  3.7800001e-021
  3.4788400e+002  3.8339999e-021
  3.4800500e+002  3.3830001e-021
  3.4812600e+002  3.5159999e-021
  3.4824700e+002  3.3280000e-021
  3.4836800e+002  3.2870001e-021
  3.4848800e+002  3.2870001e-021
  3.4860900e+002  3.2870001e-021
  3.4873000e+002  3.5350000e-021
  3.4885100e+002  3.8110000e-021
  3.4897200e+002  3.3259999e-021
  3.4909300e+002  3.8030000e-021
  3.4921300e+002  3.3110000e-021
  3.4933400e+002  3.5520000e-021
  3.4945500e+002  3.2910001e-021
  3.4957600e+002  3.2870001e-021
  3.4969700e+002  3.2910001e-021
  3.4981800e+002  3.5610000e-021
  3.4993900e+002  3.5489998e-021
  3.5005900e+002  3.2870001e-021
  3.5018000e+002  3.3060000e-021
  3.5030100e+002  3.5610000e-021
  3.5042200e+002  3.5610000e-021
  3.5054300e+002  3.5610000e-021
  3.5066400e+002  3.5249999e-021
  3.5078400e+002  3.2870001e-021
  3.5090500e+002  3.2870001e-021
  3.5102600e+002  3.2870001e-021
  3.5114700e+002  3.2870001e-021
  3.5126800e+002  3.3430000e-021
  3.5138900e+002  3.4399998e-021
  3.5150900e+002  3.0129999e-021
  3.5163000e+002  3.0820000e-021
  3.5175100e+002  3.2870001e-021
  3.5187200e+002  3.2089999e-021
  3.5199300e+002  3.0129999e-021
  3.5211400e+002  3.0990001e-021
  3.5223400e+002  3.2870001e-021
  3.5235500e+002  3.1919999e-021
  3.5247600e+002  3.1120001e-021
  3.5259700e+002  3.2870001e-021
  3.5271800e+002  3.1790001e-021
  3.5283900e+002  3.0129999e-021
  3.5295900e+002  2.8959999e-021
  3.5308000e+002  2.9830001e-021
  3.5320100e+002  3.4130001e-021
  3.5332200e+002  3.4300001e-021
  3.5344300e+002  3.2870001e-021
  3.5356400e+002  3.4270000e-021
  3.5368400e+002  3.5600000e-021
  3.5380500e+002  3.2620001e-021
  3.5392600e+002  3.0129999e-021
  3.5404700e+002  3.1720000e-021
  3.5416800e+002  3.2870001e-021
  3.5428900e+002  3.2870001e-021
  3.5440900e+002  3.2870001e-021
  3.5453000e+002  3.4640002e-021
  3.5465100e+002  3.0120001e-021
  3.5477200e+002  2.9270000e-021
  3.5489300e+002  3.2060000e-021
  3.5501400e+002  3.2870001e-021
  3.5513400e+002  3.2860000e-021
  3.5525500e+002  3.0790001e-021
  3.5537600e+002  3.0129999e-021
  3.5549700e+002  3.2299999e-021
  3.5561800e+002  3.0640000e-021
  3.5573900e+002  3.0129999e-021
  3.5585900e+002  3.0140000e-021
  3.5598000e+002  3.4880001e-021
  3.5610100e+002  3.3180000e-021
  3.5622200e+002  3.2870001e-021
  3.5634300e+002  3.2870001e-021
  3.5646400e+002  3.5440000e-021
  3.5658500e+002  3.2970000e-021
  3.5670500e+002  3.2870001e-021
  3.5682600e+002  3.5610000e-021
  3.5694700e+002  3.5550001e-021
  3.5706800e+002  3.2870001e-021
  3.5718900e+002  3.3030000e-021
  3.5731000e+002  3.5390002e-021
  3.5743000e+002  3.2870001e-021
  3.5755100e+002  3.2870001e-021
  3.5767200e+002  3.2870001e-021
  3.5779300e+002  3.3299999e-021
  3.5791400e+002  3.5120001e-021
  3.5803500e+002  3.2870001e-021
  3.5815500e+002  3.2280000e-021
  3.5827600e+002  3.1430000e-021
  3.5839700e+002  3.5610000e-021
  3.5851800e+002  3.4850000e-021
  3.5863900e+002  3.3680000e-021
  3.5876000e+002  3.6470001e-021
  3.5888000e+002  3.6489998e-021
  3.5900100e+002  3.3850000e-021
  3.5912200e+002  3.5610000e-021
  3.5924300e+002  3.5610000e-021
  3.5936400e+002  3.6749999e-021
  3.5948500e+002  3.5930000e-021
  3.5960500e+002  3.5390002e-021
  3.5972600e+002  3.4380001e-021
  3.5984700e+002  3.2890000e-021
  3.5996800e+002  3.7040001e-021
  3.6008900e+002  3.5360000e-021
  3.6021000e+002  3.4419999e-021
  3.6033000e+002  3.5610000e-021
  3.6045100e+002  3.5610000e-021
  3.6057200e+002  3.5610000e-021
  3.6069300e+002  3.5610000e-021
  3.6081400e+002  3.7450000e-021
  3.6093500e+002  3.4540001e-021
  3.6105600e+002  3.4829999e-021
  3.6117600e+002  3.7630001e-021
  3.6129700e+002  3.6249999e-021
  3.6141800e+002  3.1330001e-021
  3.6153900e+002  3.6730002e-021
  3.6166000e+002  3.8350000e-021
  3.6178100e+002  3.8350000e-021
  3.6190100e+002  3.8350000e-021
  3.6202200e+002  3.8339999e-021
  3.6214300e+002  3.5850000e-021
  3.6226400e+002  3.8169999e-021
  3.6238500e+002  3.5720001e-021
  3.6250600e+002  3.5610000e-021
  3.6262600e+002  3.8350000e-021
  3.6274700e+002  3.8350000e-021
  3.6286800e+002  3.8480002e-021
  3.6298900e+002  4.0880001e-021
  3.6311000e+002  3.8350000e-021
  3.6323100e+002  3.8350000e-021
  3.6335100e+002  3.8350000e-021
  3.6347200e+002  3.8800001e-021
  3.6359300e+002  4.1079999e-021
  3.6371400e+002  4.1089999e-021
  3.6383500e+002  4.1720001e-021
  3.6395600e+002  4.3120000e-021
  3.6407600e+002  4.0319998e-021
  3.6419700e+002  3.9169999e-021
  3.6431800e+002  4.0190000e-021
  3.6443900e+002  3.8350000e-021
  3.6456000e+002  3.9360000e-021
  3.6468100e+002  3.9999999e-021
  3.6480100e+002  3.8350000e-021
  3.6492200e+002  3.8350000e-021
  3.6504300e+002  3.8350000e-021
  3.6516400e+002  4.1030000e-021
  3.6528500e+002  4.2419999e-021
  3.6540600e+002  4.1089999e-021
  3.6552600e+002  4.2620000e-021
  3.6564700e+002  4.0620000e-021
  3.6576800e+002  4.0009999e-021
  3.6588900e+002  4.1079999e-021
  3.6601000e+002  4.1089999e-021
  3.6613100e+002  4.2940000e-021
  3.6625100e+002  3.9960001e-021
  3.6637200e+002  4.0339999e-021
  3.6649300e+002  4.1079999e-021
  3.6661400e+002  3.8950000e-021
  3.6673500e+002  3.8350000e-021
  3.6685600e+002  4.0610000e-021
  3.6697700e+002  4.1079999e-021
  3.6709700e+002  4.1079999e-021
  3.6721800e+002  4.1089999e-021
  3.6733900e+002  4.3610000e-021
  3.6746000e+002  4.1220001e-021
  3.6758100e+002  3.8419999e-021
  3.6770200e+002  3.8350000e-021
  3.6782200e+002  3.8280000e-021
  3.6794300e+002  3.6009999e-021
  3.6806400e+002  4.3820002e-021
  3.6818500e+002  4.3550001e-021
  3.6830600e+002  4.1079999e-021
  3.6842700e+002  4.1079999e-021
  3.6854700e+002  4.1079999e-021
  3.6866800e+002  3.9999999e-021
  3.6878900e+002  3.7440000e-021
  3.6891000e+002  4.3140001e-021
  3.6903100e+002  4.1079999e-021
  3.6915200e+002  4.1089999e-021
  3.6927200e+002  4.1970001e-021
  3.6939300e+002  4.3820002e-021
  3.6951400e+002  4.2800001e-021
  3.6963500e+002  4.4370000e-021
  3.6975600e+002  4.8140001e-021
  3.6987700e+002  4.6560001e-021
  3.6999700e+002  4.7870000e-021
  3.7011800e+002  4.7929999e-021
  3.7023900e+002  4.7999998e-021
  3.7036000e+002  4.6270000e-021
  3.7048100e+002  4.5409998e-021
  3.7060200e+002  4.6560001e-021
  3.7072200e+002  4.4829998e-021
  3.7084300e+002  4.3820002e-021
  3.7096400e+002  4.3820002e-021
  3.7108500e+002  4.1890001e-021
  3.7120600e+002  4.3099999e-021
  3.7132700e+002  4.3820002e-021
  3.7144700e+002  4.1679999e-021
  3.7156800e+002  4.3300001e-021
  3.7168900e+002  3.6940000e-021
  3.7181000e+002  4.0339999e-021
  3.7193100e+002  4.1079999e-021
  3.7205200e+002  3.8579999e-021
  3.7217200e+002  4.6089999e-021
  3.7229300e+002  4.1259999e-021
  3.7241400e+002  4.6530000e-021
  3.7253500e+002  4.1079999e-021
  3.7265600e+002  4.1089999e-021
  3.7277700e+002  4.1499999e-021
  3.7289800e+002  4.6280000e-021
  3.7301800e+002  4.3470001e-021
  3.7313900e+002  4.0659998e-021
  3.7326000e+002  3.8839999e-021
  3.7338100e+002  4.1079999e-021
  3.7350200e+002  4.0440000e-021
  3.7362300e+002  3.8350000e-021
  3.7374300e+002  3.8350000e-021
  3.7386400e+002  4.0060002e-021
  3.7398500e+002  4.1960001e-021
  3.7410600e+002  3.9350000e-021
  3.7422700e+002  4.1079999e-021
  3.7434800e+002  4.1079999e-021
  3.7446800e+002  4.1079999e-021
  3.7458900e+002  3.9790001e-021
  3.7471000e+002  4.1089999e-021
  3.7483100e+002  4.2380001e-021
  3.7495200e+002  4.2599999e-021
  3.7507300e+002  4.3820002e-021
  3.7519300e+002  4.0499999e-021
  3.7531400e+002  4.0089999e-021
  3.7543500e+002  4.1079999e-021
  3.7555600e+002  4.1079999e-021
  3.7567700e+002  3.9130001e-021
  3.7579800e+002  4.2409998e-021
  3.7591800e+002  4.1710001e-021
  3.7603900e+002  4.1079999e-021
  3.7616000e+002  4.1079999e-021
  3.7628100e+002  4.1079999e-021
  3.7640200e+002  4.1079999e-021
  3.7652300e+002  4.1079999e-021
  3.7664300e+002  4.1079999e-021
  3.7676400e+002  4.1079999e-021
  3.7688500e+002  3.8390002e-021
  3.7700600e+002  4.3820002e-021
  3.7712700e+002  4.3820002e-021
  3.7724800e+002  4.3249999e-021
  3.7736800e+002  3.6140002e-021
  3.7748900e+002  4.1079999e-021
  3.7761000e+002  4.0669999e-021
  3.7773100e+002  3.8350000e-021
  3.7785200e+002  3.8909998e-021
  3.7797300e+002  4.0450000e-021
  3.7809400e+002  3.9780000e-021
  3.7821400e+002  4.3820002e-021
  3.7833500e+002  4.2089999e-021
  3.7845600e+002  3.9290001e-021
  3.7857700e+002  4.3120000e-021
  3.7869800e+002  4.5470001e-021
  3.7881900e+002  4.3820002e-021
  3.7893900e+002  4.3820002e-021
  3.7906000e+002  4.3829998e-021
  3.7918100e+002  4.5210001e-021
  3.7930200e+002  4.3630001e-021
  3.7942300e+002  4.2630001e-021
  3.7954400e+002  4.3829998e-021
  3.7966400e+002  4.5520000e-021
  3.7978500e+002  4.8329998e-021
  3.7990600e+002  4.9300001e-021
  3.8002700e+002  4.9300001e-021
  3.8014800e+002  4.9300001e-021
  3.8026900e+002  4.5159998e-021
  3.8038900e+002  5.0269999e-021
  3.8051000e+002  4.9820002e-021
  3.8063100e+002  4.9300001e-021
  3.8075200e+002  4.6919999e-021
  3.8087300e+002  4.1659998e-021
  3.8099400e+002  4.8669999e-021
  3.8111400e+002  5.1909998e-021
  3.8123500e+002  5.2040000e-021
  3.8135600e+002  5.2060001e-021
  3.8147700e+002  5.4780000e-021
  3.8159800e+002  5.4780000e-021
  3.8171900e+002  5.4530000e-021
  3.8183900e+002  5.1720001e-021
  3.8196000e+002  5.0099999e-021
  3.8208100e+002  5.5249998e-021
  3.8220200e+002  5.6419998e-021
  3.8232300e+002  5.2040000e-021
  3.8244400e+002  5.2740002e-021
  3.8256400e+002  5.4780000e-021
  3.8268500e+002  5.3070002e-021
  3.8280600e+002  4.9300001e-021
  3.8292700e+002  5.1320002e-021
  3.8304800e+002  5.3700000e-021
  3.8316900e+002  5.3200000e-021
  3.8328900e+002  5.3550001e-021
  3.8341000e+002  5.3349999e-021
  3.8353100e+002  5.4780000e-021
  3.8365200e+002  5.1860000e-021
  3.8377300e+002  5.2380001e-021
  3.8389400e+002  5.1550001e-021
  3.8401400e+002  4.9300001e-021
  3.8413500e+002  4.9300001e-021
  3.8425600e+002  4.7460001e-021
  3.8437700e+002  5.0400002e-021
  3.8449800e+002  5.4030000e-021
  3.8461900e+002  5.0640001e-021
  3.8474000e+002  4.9300001e-021
  3.8486000e+002  5.1519999e-021
  3.8498100e+002  4.7440000e-021
  3.8510200e+002  4.6570002e-021
  3.8522300e+002  5.1470001e-021
  3.8534400e+002  5.4560001e-021
  3.8546500e+002  4.9579998e-021
  3.8558500e+002  4.9300001e-021
  3.8570600e+002  5.2019999e-021
  3.8582700e+002  4.9300001e-021
  3.8594800e+002  4.9300001e-021
  3.8606900e+002  4.9060001e-021
  3.8619000e+002  4.6880001e-021
  3.8631000e+002  4.8509999e-021
  3.8643100e+002  4.4770000e-021
  3.8655200e+002  4.9300001e-021
  3.8667300e+002  4.9300001e-021
  3.8679400e+002  4.7200000e-021
  3.8691500e+002  4.1860000e-021
  3.8703500e+002  4.5520000e-021
  3.8715600e+002  4.7440000e-021
  3.8727700e+002  4.1819998e-021
  3.8739800e+002  4.0499999e-021
  3.8751900e+002  4.3820002e-021
  3.8764000e+002  4.3820002e-021
  3.8776000e+002  4.2520000e-021
  3.8788100e+002  4.2460001e-021
  3.8800200e+002  4.5280000e-021
  3.8812300e+002  4.6560001e-021
  3.8824400e+002  4.8169999e-021
  3.8836500e+002  4.9300001e-021
  3.8848500e+002  4.7540000e-021
  3.8860600e+002  4.2900002e-021
  3.8872700e+002  4.1079999e-021
  3.8884800e+002  3.9100000e-021
  3.8896900e+002  3.8350000e-021
  3.8909000e+002  4.2610000e-021
  3.8921000e+002  4.6030000e-021
  3.8933100e+002  4.6560001e-021
  3.8945200e+002  4.6560001e-021
  3.8957300e+002  4.6560001e-021
  3.8969400e+002  4.9060001e-021
  3.8981500e+002  4.4140001e-021
  3.8993600e+002  4.6480002e-021
  3.9005600e+002  4.6560001e-021
  3.9017700e+002  4.1220001e-021
  3.9029800e+002  4.6560001e-021
  3.9041900e+002  4.6560001e-021
  3.9054000e+002  4.6849999e-021
  3.9066100e+002  4.8570002e-021
  3.9078100e+002  4.3390001e-021
  3.9090200e+002  4.2110000e-021
  3.9102300e+002  4.6560001e-021
  3.9114400e+002  4.7220001e-021
  3.9126500e+002  4.7829998e-021
  3.9138600e+002  4.3820002e-021
  3.9150600e+002  4.5589999e-021
  3.9162700e+002  4.8349999e-021
  3.9174800e+002  4.6560001e-021
  3.9186900e+002  4.4349999e-021
  3.9199000e+002  3.9909998e-021
  3.9211100e+002  4.3349999e-021
  3.9223100e+002  4.7970001e-021
  3.9235200e+002  4.0970001e-021
  3.9247300e+002  4.0020000e-021
  3.9259400e+002  4.3820002e-021
  3.9271500e+002  4.0589999e-021
  3.9283600e+002  3.8350000e-021
  3.9295600e+002  3.8350000e-021
  3.9307700e+002  3.8350000e-021
  3.9319800e+002  3.8339999e-021
  3.9331900e+002  3.6370001e-021
  3.9344000e+002  4.1780000e-021
  3.9356100e+002  4.8079998e-021
  3.9368100e+002  4.7099999e-021
  3.9380200e+002  4.6560001e-021
  3.9392300e+002  4.4220001e-021
  3.9404400e+002  4.6239998e-021
  3.9416500e+002  4.4070002e-021
  3.9428600e+002  3.8700000e-021
  3.9440600e+002  4.0980002e-021
  3.9452700e+002  4.3790001e-021
  3.9464800e+002  3.8390002e-021
  3.9476900e+002  4.0749999e-021
  3.9489000e+002  3.3230000e-021
  3.9501100e+002  3.8600000e-021
  3.9513200e+002  4.0759999e-021
  3.9525200e+002  3.9540001e-021
  3.9537300e+002  4.7030000e-021
  3.9549400e+002  4.7130001e-021
  3.9561500e+002  3.8960001e-021
  3.9573600e+002  4.1770000e-021
  3.9585700e+002  4.3069998e-021
  3.9597700e+002  4.1089999e-021
  3.9609800e+002  4.2870000e-021
  3.9621900e+002  4.4630001e-021
  3.9634000e+002  4.1089999e-021
  3.9646100e+002  4.2190000e-021
  3.9658200e+002  4.2650002e-021
  3.9670200e+002  4.2329998e-021
  3.9682300e+002  4.2499999e-021
  3.9694400e+002  3.5530000e-021
  3.9706500e+002  3.5960001e-021
  3.9718600e+002  3.9560002e-021
  3.9730700e+002  3.8339999e-021
  3.9742700e+002  3.5009999e-021
  3.9754800e+002  3.6339999e-021
  3.9766900e+002  3.4739998e-021
  3.9779000e+002  3.4739998e-021
  3.9791100e+002  3.1720000e-021
  3.9803200e+002  3.4149998e-021
  3.9815200e+002  3.7690000e-021
  3.9827300e+002  3.1890000e-021
  3.9839400e+002  3.0129999e-021
  3.9851500e+002  3.6980002e-021
  3.9863600e+002  1.9499999e-021
  3.9875700e+002  3.0980000e-021
  3.9887700e+002  3.0379999e-021
  3.9899800e+002  3.0129999e-021
  3.9911900e+002  3.2759999e-021
  3.9924000e+002  3.2870001e-021
  3.9936100e+002  3.0100000e-021
  3.9948200e+002  2.7200001e-021
  3.9960200e+002  2.2070001e-021
  3.9972300e+002  2.4650000e-021
  3.9984400e+002  2.4650000e-021
  3.9996500e+002  2.5740001e-021
  4.0008600e+002  3.1580001e-021
  4.0020700e+002  2.5150000e-021
  4.0032700e+002  2.7390000e-021
  4.0044800e+002  2.7390000e-021
  4.0056900e+002  2.7390000e-021
  4.0069000e+002  2.7390000e-021
  4.0081100e+002  2.7390000e-021
  4.0093200e+002  2.4709999e-021
  4.0105300e+002  2.1090000e-021
  4.0117300e+002  2.6700001e-021
  4.0129400e+002  2.9039999e-021
  4.0141500e+002  2.3919999e-021
  4.0153600e+002  2.2840000e-021
  4.0165700e+002  2.7390000e-021
  4.0177800e+002  2.6039999e-021
  4.0189800e+002  2.4650000e-021
  4.0201900e+002  2.4650000e-021
  4.0214000e+002  2.3110001e-021
  4.0226100e+002  2.0300000e-021
  4.0238200e+002  2.0850000e-021
  4.0250300e+002  2.7120001e-021
  4.0262300e+002  2.4730000e-021
  4.0274400e+002  2.3780001e-021
  4.0286500e+002  2.2720000e-021
  4.0298600e+002  1.7930000e-021
  4.0310700e+002  1.8490001e-021
  4.0322800e+002  2.3410001e-021
  4.0334800e+002  2.6830001e-021
  4.0346900e+002  2.5150000e-021
  4.0359000e+002  2.4650000e-021
  4.0371100e+002  2.2280001e-021
  4.0383200e+002  1.7050000e-021
  4.0395300e+002  1.8930000e-021
  4.0407300e+002  2.4280001e-021
  4.0419400e+002  2.7270000e-021
  4.0431500e+002  2.4709999e-021
  4.0443600e+002  2.7390000e-021
  4.0455700e+002  2.7450001e-021
  4.0467800e+002  2.9749999e-021
  4.0479800e+002  2.2100000e-021
  4.0491900e+002  2.4650000e-021
  4.0504000e+002  2.5260000e-021
  4.0516100e+002  2.9760000e-021
  4.0528200e+002  2.6959999e-021
  4.0540300e+002  2.4650000e-021
  4.0552300e+002  2.4650000e-021
  4.0564400e+002  2.4650000e-021
  4.0576500e+002  2.5980000e-021
  4.0588600e+002  3.0129999e-021
  4.0600700e+002  3.0129999e-021
  4.0612800e+002  2.8440000e-021
  4.0624900e+002  2.8260000e-021
  4.0636900e+002  3.5610000e-021
  4.0649000e+002  3.4589999e-021
  4.0661100e+002  3.5030000e-021
  4.0673200e+002  3.6069998e-021
  4.0685300e+002  3.0480000e-021
  4.0697400e+002  2.7390000e-021
  4.0709400e+002  3.0010000e-021
  4.0721500e+002  3.6970001e-021
  4.0733600e+002  4.2509999e-021
  4.0745700e+002  4.0860000e-021
  4.0757800e+002  3.5270000e-021
  4.0769900e+002  3.2870001e-021
  4.0781900e+002  3.4520000e-021
  4.0794000e+002  3.3899998e-021
  4.0806100e+002  3.2870001e-021
  4.0818200e+002  2.9230000e-021
  4.0830300e+002  2.7390000e-021
  4.0842400e+002  2.7390000e-021
  4.0854400e+002  2.7390000e-021
  4.0866500e+002  2.1270000e-021
  4.0878600e+002  2.3360001e-021
  4.0890700e+002  2.6800000e-021
  4.0902800e+002  3.4009999e-021
  4.0914900e+002  4.0120001e-021
  4.0926900e+002  3.4149998e-021
  4.0939000e+002  2.8129999e-021
  4.0951100e+002  2.2550000e-021
  4.0963200e+002  2.6860000e-021
  4.0975300e+002  3.4970001e-021
  4.0987400e+002  3.0440000e-021
  4.0999400e+002  1.6960000e-021
  4.1011500e+002  1.8070001e-021
  4.1023600e+002  1.9170000e-021
