NMMB/CMAQ+GDAS+RAQMS True Full State Vector Data
Data_Size = 75 x 9
surfaceTemperature = 311.541
ZSUR = 26.0700
latitude = 39.4101
longitude = -76.297
YYYYMMDD = 20110730
UTCSEC = 64567.0
End_of_Header  ****  End_of_Header  ****  End_of_Header  ****  End_of_Header
Level Pressure     TATM       H2O        O3         NO2        HCHO       SO2        CO
-     hPa          K          VMR        VMR        VMR        VMR        VMR        VMR
  1   1010.5331421 3.0452E+02 1.9465E-02 5.4956E-08 6.1197E-10 2.2103E-09 7.5165E-10 1.1697E-07
  2   1003.3382568 3.0373E+02 1.9214E-02 5.5093E-08 5.2457E-10 2.1670E-09 7.2530E-10 1.1553E-07
  3    998.5103760 3.0305E+02 1.9195E-02 5.5093E-08 4.9284E-10 2.1498E-09 7.1522E-10 1.1510E-07
  4    993.6199951 3.0254E+02 1.9085E-02 5.5078E-08 4.7406E-10 2.1390E-09 7.0960E-10 1.1489E-07
  5    988.6292725 3.0222E+02 1.9059E-02 5.5062E-08 4.6191E-10 2.1305E-09 7.0524E-10 1.1472E-07
  6    983.5377197 3.0165E+02 1.9020E-02 5.5042E-08 4.4933E-10 2.1207E-09 7.0173E-10 1.1454E-07
  7    978.3457642 3.0131E+02 1.8988E-02 5.5020E-08 4.4024E-10 2.1126E-09 6.9846E-10 1.1440E-07
  8    973.0524902 3.0077E+02 1.8568E-02 5.4998E-08 4.3088E-10 2.1037E-09 6.9499E-10 1.1429E-07
  9    967.6079712 3.0032E+02 1.8596E-02 5.4970E-08 4.2223E-10 2.0945E-09 6.9158E-10 1.1411E-07
 10    961.9621582 2.9975E+02 1.8577E-02 5.4943E-08 4.1336E-10 2.0841E-09 6.8801E-10 1.1391E-07
 11    956.1146851 2.9931E+02 1.8531E-02 5.4917E-08 4.0572E-10 2.0740E-09 6.8420E-10 1.1372E-07
 12    950.0150757 2.9854E+02 1.8572E-02 5.4886E-08 3.9601E-10 2.0618E-09 6.7978E-10 1.1352E-07
 13    943.6129150 2.9804E+02 1.8646E-02 5.4855E-08 3.8828E-10 2.0491E-09 6.7484E-10 1.1324E-07
 14    936.9082031 2.9743E+02 1.8657E-02 5.4824E-08 3.7992E-10 2.0348E-09 6.6949E-10 1.1296E-07
 15    929.8509521 2.9684E+02 1.8406E-02 5.4781E-08 3.7180E-10 2.0187E-09 6.6298E-10 1.1263E-07
 16    922.1886597 2.9604E+02 1.8542E-02 5.4745E-08 3.6214E-10 1.9996E-09 6.5506E-10 1.1221E-07
 17    913.6690674 2.9531E+02 1.8038E-02 5.4702E-08 3.5323E-10 1.9772E-09 6.4578E-10 1.1174E-07
 18    903.7888794 2.9489E+02 1.4909E-02 5.4651E-08 3.4705E-10 1.9462E-09 6.3368E-10 1.1116E-07
 19    892.3456421 2.9415E+02 1.2474E-02 5.4573E-08 3.3770E-10 1.9070E-09 6.1572E-10 1.1055E-07
 20    879.2866211 2.9352E+02 9.2816E-03 5.4476E-08 3.2700E-10 1.8482E-09 5.9033E-10 1.0942E-07
 21    864.3099976 2.9270E+02 6.4563E-03 5.4318E-08 3.1132E-10 1.7683E-09 5.5734E-10 1.0769E-07
 22    847.3666382 2.9146E+02 7.6147E-03 5.4098E-08 2.7426E-10 1.6337E-09 5.0376E-10 1.0463E-07
 23    828.2044678 2.8999E+02 8.2632E-03 5.3679E-08 1.7889E-10 1.1861E-09 3.1289E-10 9.4201E-08
 24    806.7227173 2.8821E+02 8.8321E-03 5.3224E-08 1.4392E-10 1.0397E-09 2.5176E-10 9.0596E-08
 25    783.0222168 2.8648E+02 8.4297E-03 5.2729E-08 4.8534E-11 6.6930E-10 1.3266E-10 8.3763E-08
 26    757.1027832 2.8522E+02 6.8047E-03 5.4218E-08 2.2376E-11 4.8015E-10 6.7780E-11 8.2480E-08
 27    729.1665649 2.8421E+02 4.8386E-03 5.6994E-08 1.8183E-11 3.8806E-10 4.9753E-11 8.0744E-08
 28    699.5660400 2.8286E+02 4.0277E-03 5.9975E-08 1.2181E-11 3.2105E-10 5.3841E-11 7.8508E-08
 29    668.8562622 2.8058E+02 3.6831E-03 6.4876E-08 7.4474E-12 2.5793E-10 3.8830E-11 7.4545E-08
 30    637.3900146 2.7838E+02 2.4511E-03 7.2425E-08 4.7416E-12 1.8615E-10 1.7101E-11 7.0361E-08
 31    605.2681885 2.7582E+02 1.5472E-03 7.8906E-08 3.2319E-12 1.3904E-10 1.1023E-11 6.8280E-08
 32    572.7430420 2.7313E+02 1.1728E-03 8.3836E-08 2.4535E-12 1.1506E-10 1.0555E-11 6.7300E-08
 33    539.9656982 2.7020E+02 9.2875E-04 8.6894E-08 2.1814E-12 1.0328E-10 1.0073E-11 6.6922E-08
 34    507.0269775 2.6753E+02 1.0830E-03 8.4903E-08 1.9868E-12 1.0552E-10 1.1392E-11 6.7018E-08
 35    474.1387634 2.6425E+02 1.8209E-03 8.1320E-08 1.7135E-12 1.0353E-10 8.1039E-12 6.5945E-08
 36    441.5126953 2.6087E+02 2.2385E-03 7.1291E-08 1.9468E-12 1.1709E-10 6.0676E-12 6.7409E-08
 37    409.3404541 2.5782E+02 1.6516E-03 5.3422E-08 2.6825E-12 1.2467E-10 1.1549E-11 7.2686E-08
 38    377.7230225 2.5421E+02 1.7259E-03 4.2497E-08 4.0613E-12 1.3355E-10 1.2639E-11 7.7768E-08
 39    346.7610168 2.5012E+02 1.5560E-03 4.1681E-08 5.1924E-12 1.3126E-10 8.6628E-12 8.1171E-08
 40    316.8580017 2.4532E+02 1.0555E-03 3.9198E-08 7.1171E-12 1.4806E-10 7.1535E-12 8.7887E-08
 41    288.6190491 2.4062E+02 6.6509E-04 3.7140E-08 1.0484E-11 1.7619E-10 7.6308E-12 9.4353E-08
 42    262.4980469 2.3558E+02 5.2507E-04 4.2514E-08 1.5563E-11 1.8589E-10 4.5197E-12 9.7132E-08
 43    238.7975464 2.3073E+02 3.0171E-04 5.4406E-08 1.9801E-11 1.8749E-10 4.1809E-12 9.6715E-08
 44    217.4670105 2.2599E+02 1.5299E-04 5.9285E-08 2.3917E-11 2.0894E-10 4.2459E-12 9.6825E-08
 45    198.2040253 2.2119E+02 7.1331E-05 5.7644E-08 2.6305E-11 2.0668E-10 5.4226E-12 9.3476E-08
 46    180.9077606 2.1666E+02 3.2387E-05 6.7983E-08 2.7125E-11 1.8139E-10 3.0074E-12 9.0713E-08
 47    165.2250366 2.1258E+02 1.3918E-05 1.0507E-07 2.6684E-11 1.2258E-10 2.0686E-12 8.2433E-08
 48    150.7021637 2.0899E+02 1.1271E-05 1.4075E-07 2.9577E-11 7.5062E-11 1.9448E-12 7.6537E-08
 49    136.9356995 2.0571E+02 8.6991E-06 1.7013E-07 3.1985E-11 6.0400E-11 2.0221E-12 7.3952E-08
 50    123.7239380 2.0411E+02 7.4093E-06 2.4500E-07 3.3598E-11 5.1510E-11 1.8515E-12 6.8172E-08
 51    111.0163574 2.0391E+02 7.2045E-06 3.5264E-07 3.8711E-11 3.7143E-11 1.3384E-12 5.8136E-08
 52     98.6618729 2.0513E+02 5.0906E-06 4.5453E-07 5.0499E-11 2.2802E-11 9.0258E-13 4.8825E-08
 53     86.6602631 2.0713E+02 2.7720E-06 6.7106E-07 6.6074E-11 1.6323E-11 5.3264E-13 4.0997E-08
 54     74.9613266 2.1015E+02 2.2839E-06 9.5645E-07 8.7362E-11 1.4261E-11 3.1629E-13 3.3113E-08
 55     63.4640045 2.1157E+02 2.4537E-06 1.2951E-06 1.2508E-10 1.5179E-11 1.8287E-13 2.7227E-08
 56     52.1432343 2.1473E+02 4.2382E-06 1.9711E-06 1.9221E-10 1.7323E-11 3.5393E-14 2.1008E-08
 57     48.2345123 2.1613E+02 2.2560E-06 2.2212E-06 2.3805E-10 1.9176E-11 6.2252E-15 1.9370E-08
 58     41.8168831 2.1735E+02 1.6513E-06 2.8517E-06 3.0624E-10 2.2413E-11 4.0247E-15 1.8388E-08
 59     36.1492844 2.1870E+02 1.4488E-06 3.6236E-06 4.6101E-10 2.6615E-11 2.4067E-15 1.7978E-08
 60     31.1515160 2.1995E+02 1.6203E-06 4.4136E-06 7.1862E-10 3.2042E-11 1.3967E-15 1.8202E-08
 61     26.7502117 2.2162E+02 1.9116E-06 5.2106E-06 9.4548E-10 3.6821E-11 5.0722E-16 1.8399E-08
 62     22.8786736 2.2291E+02 1.9758E-06 5.9016E-06 1.4315E-09 4.3543E-11 2.4027E-16 1.8711E-08
 63     19.4765949 2.2434E+02 1.8701E-06 6.5359E-06 1.9207E-09 4.9997E-11 1.1758E-16 1.9015E-08
 64     16.4897194 2.2658E+02 1.7688E-06 7.2685E-06 2.4085E-09 5.4907E-11 3.4485E-17 1.9111E-08
 65     13.8694305 2.2787E+02 1.7313E-06 7.8841E-06 2.9711E-09 5.7467E-11 1.8607E-17 1.8800E-08
 66     11.5723000 2.2796E+02 1.7159E-06 8.3360E-06 3.4644E-09 5.9711E-11 4.6869E-18 1.8527E-08
 67      9.5596762 2.2850E+02 1.6381E-06 8.5870E-06 3.5397E-09 5.5602E-11 2.0196E-18 1.6283E-08
 68      7.7972245 2.3244E+02 1.5163E-06 8.7036E-06 3.5655E-09 5.1318E-11 7.5992E-19 1.4090E-08
 69      6.2545238 2.3710E+02 1.4239E-06 8.6784E-06 3.1254E-09 4.5235E-11 2.3161E-19 1.1706E-08
 70      4.9046464 2.4382E+02 1.4169E-06 8.3707E-06 2.4969E-09 3.8683E-11 7.1651E-20 9.3746E-09
 71      3.7237844 2.5105E+02 1.6433E-06 7.4844E-06 1.8797E-09 4.3642E-11 4.6232E-20 9.2140E-09
 72      2.6908376 2.5692E+02 1.7826E-06 6.0979E-06 1.2278E-09 5.2220E-11 5.2953E-20 9.9869E-09
 73      1.7868934 2.6553E+02 1.7936E-06 4.4549E-06 5.7811E-10 5.5243E-11 5.6498E-20 1.0755E-08
 74      0.9938254 2.6789E+02 1.9588E-06 2.7852E-06 1.3156E-10 4.0572E-11 4.4614E-20 1.0512E-08
 75      0.2665921 2.4665E+02 1.7376E-06 1.1776E-06 1.0000E-16 2.4143E-11 5.6817E-20 1.1526E-08
